Date, MaxTemperature, MinTemperature, Precipitation
1/1/2000,90,77,0.32
1/2/2000,92,79,0
1/3/2000,91,77,0.25
1/4/2000,93,78, T
1/5/2000,93,80,0
1/6/2000,91,78,0.12
1/7/2000,84,76,0.97
1/8/2000,91,76, T
1/9/2000,92,78,0.48
1/10/2000,91,77, T
1/11/2000,89,76,0.57
1/12/2000,89,76,0
1/13/2000,91,80, T
1/14/2000,93,78,0.05
1/15/2000,91,77,0
1/16/2000,91,78,0
1/17/2000,89,78,1.68
1/18/2000,92,80,0.18
1/19/2000,88,78,0.87
1/20/2000,86,78,2.3
1/21/2000,87,78,2.05
1/22/2000,83,77,2.06
1/23/2000,91,76,0
1/24/2000,92,79, T
1/25/2000,89,79,0.03
1/26/2000,92,77,0.45
1/27/2000,89,77,0.04
1/28/2000,89,78,0.18
1/29/2000,89,78,0.41
1/30/2000,89,77,0.11
1/31/2000,89,78,0.31
2/1/2000,90,77,0.06
2/2/2000,90,81,0.03
2/3/2000,90,81,0.07
2/4/2000,91,80,0.02
2/5/2000,88,78,0.01
2/6/2000,90,80,0.4
2/7/2000,90,77, T
2/8/2000,89,76, T
2/9/2000,87,76,0.09
2/10/2000,90,76,0.92
2/11/2000,91,75,1.66
2/12/2000,91,76,0.4
2/13/2000,90,76,0.25
2/14/2000,89,79,0.02
2/15/2000,89,80,0.02
2/16/2000,90,79,0.05
2/17/2000,91,77,0.26
2/18/2000,91,80, T
2/19/2000,90,77,0.41
2/20/2000,91,80,0.22
2/21/2000,90,83,0.06
2/22/2000,89,77,0.73
2/23/2000,93,77,0
2/24/2000,87,78,0.2
2/25/2000,85,79,0.07
2/26/2000,88,77,0.6
2/27/2000,84,77,6.99
2/28/2000,90,80, T
2/29/2000,90,76, T
3/1/2000,89,76,0.17
3/2/2000,89,77,0.29
3/3/2000,90,77,0.23
3/4/2000,88,77,0.45
3/5/2000,88,76,2.99
3/6/2000,84,77,5.19
3/7/2000,91,78,0.74
3/8/2000,90,77,0.54
3/9/2000,86,77,1.49
3/10/2000,90,77, T
3/11/2000,89,77,0.31
3/12/2000,89,76,0.47
3/13/2000,89,81,0.07
3/14/2000,90,78,0.06
3/15/2000,90,76,0.24
3/16/2000,92,77,0.09
3/17/2000,90,77,0.03
3/18/2000,90,77,0.04
3/19/2000,89,78,0.01
3/20/2000,89,77,0.89
3/21/2000,91,76, T
3/22/2000,92,80,0.05
3/23/2000,83,75,1.29
3/24/2000,89,75,0.73
3/25/2000,90,76,1.41
3/26/2000,89,75,0
3/27/2000,90,78,0.07
3/28/2000,90,78,0.32
3/29/2000,90,77,0
3/30/2000,88,77,0.05
3/31/2000,90,77,0.02
4/1/2000,90,78,0.62
4/2/2000,90,76,0
4/3/2000,89,78,0
4/4/2000,92,78,0.07
4/5/2000,90,77,0.72
4/6/2000,86,78,0.32
4/7/2000,90,77,0.21
4/8/2000,87,77,0.18
4/9/2000,90,78,0.33
4/10/2000,90,78,0.04
4/11/2000,89,77,0.69
4/12/2000,88,76,1.08
4/13/2000,88,77,0.05
4/14/2000,89,79,0.29
4/15/2000,90,81,0.04
4/16/2000,90,78,0.02
4/17/2000,91,77, T
4/18/2000,91,79,0
4/19/2000,90,77, T
4/20/2000,89,79,0.05
4/21/2000,90,82,0.07
4/22/2000,90,83, T
4/23/2000,90,84, T
4/24/2000,91,79,0.05
4/25/2000,91,76,0
4/26/2000,89,74,0
4/27/2000,90,76,0
4/28/2000,90,76,0.02
4/29/2000,88,75, T
4/30/2000,93,77,0
5/1/2000,87,77,0.47
5/2/2000,89,76,0.02
5/3/2000,87,76,0.34
5/4/2000,93,75,0.11
5/5/2000,92,77,0
5/6/2000,90,77,0
5/7/2000,87,75,0.43
5/8/2000,88,75,0.44
5/9/2000,87,78,0.01
5/10/2000,86,76,0.06
5/11/2000,90,76,0.4
5/12/2000,85,75,1.1
5/13/2000,87,75,1.22
5/14/2000,85,76,2.14
5/15/2000,88,76,0.14
5/16/2000,87,78,0.05
5/17/2000,86,77,0.36
5/18/2000,86,79,0
5/19/2000,87,80,0
5/20/2000,87,78,0.12
5/21/2000,86,82,0
5/22/2000,87,79,0.22
5/23/2000,87,82,0
5/24/2000,84,76,0.8
5/25/2000,88,76,0.01
5/26/2000,82,74,4.03
5/27/2000,89,73,0.04
5/28/2000,85,75,0.84
5/29/2000,84,75, T
5/30/2000,85,76, T
5/31/2000,83,72,0.05
6/1/2000,85,80, T
6/2/2000,84,78, T
6/3/2000,86,81,0
6/4/2000,86,80, T
6/5/2000,85,79,0.25
6/6/2000,84,77,1.47
6/7/2000,87,78,0.26
6/8/2000,85,78,0.57
6/9/2000,86,77,0.11
6/10/2000,84,78,0.23
6/11/2000,83,76,0.92
6/12/2000,86,75,0.03
6/13/2000,85,79,0.32
6/14/2000,85,79,0.11
6/15/2000,85,78,0.08
6/16/2000,86,79,0.06
6/17/2000,86,80, T
6/18/2000,87,80, T
6/19/2000,86,77,0.06
6/20/2000,84,82, T
6/21/2000,84,76,0.38
6/22/2000,84,75,0.12
6/23/2000,85,76,0.21
6/24/2000,81,76,1.03
6/25/2000,83,77,0.16
6/26/2000,84,78,0
6/27/2000,86,77, T
6/28/2000,86,75,1.02
6/29/2000,87,76,0.51
6/30/2000,85,73,0.03
7/1/2000,85,74,0.02
7/2/2000,85,75,0
7/3/2000,84,77,0
7/4/2000,85,70,0
7/5/2000,85,78,0
7/6/2000,83,74,2.51
7/7/2000,89,75, T
7/8/2000,89,74, T
7/9/2000,84,73,0
7/10/2000,84,72,0.17
7/11/2000,82,75,0.21
7/12/2000,82,76,0
7/13/2000,83,76,0
7/14/2000,84,73,0
7/15/2000,85,71,0
7/16/2000,89,72,0
7/17/2000,85,73,0
7/18/2000,86,79, T
7/19/2000,84,79,0.04
7/20/2000,86,79, T
7/21/2000,84,74, T
7/22/2000,85,78,0.12
7/23/2000,84,76, T
7/24/2000,84,76,0.07
7/25/2000,88,74,0.02
7/26/2000,80,77,0.02
7/27/2000,83,75,0.09
7/28/2000,85,79,0.01
7/29/2000,85,79,0
7/30/2000,85,76, T
7/31/2000,86,73,0.06
8/1/2000,87,75,0.06
8/2/2000,86,71,0
8/3/2000,86,70,0
8/4/2000,88,77,0.01
8/5/2000,87,75,0.01
8/6/2000,87,81,0
8/7/2000,87,80,0.05
8/8/2000,87,80,0
8/9/2000,87,80,0
8/10/2000,87,80,0
8/11/2000,86,78,0.22
8/12/2000,87,76,0.19
8/13/2000,86,79,0.16
8/14/2000,85,78,0.41
8/15/2000,82,77,0.21
8/16/2000,84,76,0.53
8/17/2000,85,75,0.26
8/18/2000,86,75,0
8/19/2000,87,75,0.08
8/20/2000,86,80,0.01
8/21/2000,85,76,0.18
8/22/2000,87,80, T
8/23/2000,87,73,0
8/24/2000,86,80,0
8/25/2000,84,78,0.18
8/26/2000,81,77,0.1
8/27/2000,86,77, T
8/28/2000,87,79,0
8/29/2000,86,79,0.22
8/30/2000,87,78,0.03
8/31/2000,88,76,0.3
9/1/2000,88,77,0
9/2/2000,87,76,0
9/3/2000,87,76,0.04
9/4/2000,87,75,0.39
9/5/2000,87,81,0
9/6/2000,87,80,0
9/7/2000,87,81,0
9/8/2000,88,78,0.03
9/9/2000,83,75,1.43
9/10/2000,87,79,0.11
9/11/2000,87,79,0.03
9/12/2000,87,78,0.15
9/13/2000,87,80, T
9/14/2000,87,80, T
9/15/2000,87,80,0.01
9/16/2000,86,79,0.28
9/17/2000,87,81,0
9/18/2000,89,77,0
9/19/2000,89,74,0.08
9/20/2000,89,75,0.01
9/21/2000,87,76,0.04
9/22/2000,89,76,0
9/23/2000,88,74,0.01
9/24/2000,88,79,0.01
9/25/2000,89,76,0.27
9/26/2000,92,75,0
9/27/2000,88,73,0
9/28/2000,88,76,0.35
9/29/2000,81,74,2.94
9/30/2000,87,78,0.59
10/1/2000,86,81,0
10/2/2000,87,80, T
10/3/2000,87,81,0
10/4/2000,88,78, T
10/5/2000,87,77,0.32
10/6/2000,87,76,0.14
10/7/2000,87,79,0.01
10/8/2000,85,80,0.01
10/9/2000,86,77,0.22
10/10/2000,83,75,3.19
10/11/2000,83,73,2.12
10/12/2000,83,74,0.57
10/13/2000,90,75,0.02
10/14/2000,87,73,0
10/15/2000,86,76,0.01
10/16/2000,86,77,0.14
10/17/2000,83,75,0.24
10/18/2000,87,77,0.02
10/19/2000,88,77,0.54
10/20/2000,88,77,0.73
10/21/2000,89,76,0.25
10/22/2000,86,75,0.42
10/23/2000,91,76,0.07
10/24/2000,90,76,0.71
10/25/2000,88,76,0
10/26/2000,87,76,0
10/27/2000,87,76,0.84
10/28/2000,88,80,0
10/29/2000,87,76,0.11
10/30/2000,87,76,0.14
10/31/2000,84,78,0.26
11/1/2000,87,79,0.08
11/2/2000,86,80,0.14
11/3/2000,86,76,0.98
11/4/2000,92,76,0
11/5/2000,87,76,0.01
11/6/2000,87,82,0
11/7/2000,88,78,0
11/8/2000,89,80,0.1
11/9/2000,88,78,0
11/10/2000,89,79,0
11/11/2000,90,77,0
11/12/2000,91,80,0.02
11/13/2000,88,77,0.66
11/14/2000,84,76,0.87
11/15/2000,89,78, T
11/16/2000,89,79,0.33
11/17/2000,88,79,0.14
11/18/2000,88,78,0.58
11/19/2000,91,77,0.76
11/20/2000,83,75,1.48
11/21/2000,86,77,0.6
11/22/2000,85,77,0.5
11/23/2000,88,76,1.28
11/24/2000,88,76, T
11/25/2000,88,82,0.01
11/26/2000,88,78,0
11/27/2000,89,77,0.17
11/28/2000,89,76,0.15
11/29/2000,89,76,0.11
11/30/2000,89,78,0.07
12/1/2000,89,81, T
12/2/2000,89,82, T
12/3/2000,89,79,0.23
12/4/2000,90,78,0.17
12/5/2000,89,78, T
12/6/2000,89,79,0.05
12/7/2000,90,78,0
12/8/2000,90,76,0.01
12/9/2000,90,78,0.47
12/10/2000,91,76,0.02
12/11/2000,88,78,0.14
12/12/2000,91,81,0.05
12/13/2000,91,80,0.17
12/14/2000,86,78,0.64
12/15/2000,88,77,3.34
12/16/2000,89,77,0.48
12/17/2000,88,77,0.01
12/18/2000,89,77,0.63
12/19/2000,89,76,0
12/20/2000,90,76,0
12/21/2000,91,79,0.56
12/22/2000,89,80,0.2
12/23/2000,89,77, T
12/24/2000,89,78, T
12/25/2000,89,75,0
12/26/2000,89,76,0
12/27/2000,90,78,0
12/28/2000,90,76,0.03
12/29/2000,92,77,1.42
12/30/2000,91,81,0.23
12/31/2000,86,77,1.56
1/1/2001,89,77,0
1/2/2001,89,76,0.25
1/3/2001,90,80,0.04
1/4/2001,89,78,0.16
1/5/2001,89,78,0
1/6/2001,88,76,0.21
1/7/2001,92,77,1.97
1/8/2001,91,78,0.41
1/9/2001,93,77,0
1/10/2001,89,77, T
1/11/2001,90,82,0.1
1/12/2001,90,80,0.09
1/13/2001,90,78,0.19
1/14/2001,90,80, T
1/15/2001,91,80,0
1/16/2001,91,78,0
1/17/2001,92,77,0.2
1/18/2001,90,78,0.02
1/19/2001,91,79,0.01
1/20/2001,91,79, T
1/21/2001,91,76,0.05
1/22/2001,87,77,0.9
1/23/2001,90,78,0
1/24/2001,90,78,0.05
1/25/2001,91,77,1.02
1/26/2001,89,75,0.51
1/27/2001,92,78,0.01
1/28/2001,90,78,0.02
1/29/2001,90,82,0.05
1/30/2001,90,79,0.02
1/31/2001,90,78,0.11
2/1/2001,93,78,0.01
2/2/2001,88,78,0.01
2/3/2001,90,78,0.38
2/4/2001,87,78,0.05
2/5/2001,90,76,0
2/6/2001,91,77,0
2/7/2001,90,78,0.23
2/8/2001,89,78,0.04
2/9/2001,87,76,0.46
2/10/2001,89,75,0
2/11/2001,91,76,0.01
2/12/2001,91,77,0.32
2/13/2001,90,77,1.28
2/14/2001,89,76,0.87
2/15/2001,88,76, T
2/16/2001,89,77,0.14
2/17/2001,89,77,0.04
2/18/2001,91,78, T
2/19/2001,88,77,0.19
2/20/2001,92,76,0.29
2/21/2001,91,79,0
2/22/2001,90,78,0.59
2/23/2001,92,76,2.93
2/24/2001,90,79, T
2/25/2001,92,79,0.04
2/26/2001,91,75,3.7
2/27/2001,87,76,1.1
2/28/2001,85,78,0.99
3/1/2001,86,79,0.79
3/2/2001,86,79,1.53
3/3/2001,88,79,0.4
3/4/2001,92,80,0.22
3/5/2001,87,77,2.01
3/6/2001,90,79,0.01
3/7/2001,90,77,0.15
3/8/2001,90,77,0.03
3/9/2001,90,78,1.28
3/10/2001,90,79,0.37
3/11/2001,91,79,0.02
3/12/2001,90,78,0.08
3/13/2001,87,78,0.24
3/14/2001,82,74,2.34
3/15/2001,87,76,0.03
3/16/2001,87,79,0.51
3/17/2001,92,78,0.08
3/18/2001,88,78, T
3/19/2001,90,76,0.59
3/20/2001,89,77,0
3/21/2001,90,78,0.03
3/22/2001,90,81,0.65
3/23/2001,90,82,0.06
3/24/2001,90,81,0.01
3/25/2001,89,76,0.62
3/26/2001,90,77,0.11
3/27/2001,88,76,0.21
3/28/2001,93,76,1.94
3/29/2001,85,77,0.88
3/30/2001,89,77,0.01
3/31/2001,90,78,0.01
4/1/2001,90,79,0.54
4/2/2001,83,77,0.6
4/3/2001,89,79,0.15
4/4/2001,87,78,0.27
4/5/2001,89,77,0.44
4/6/2001,89,75,0
4/7/2001,90,77,0.06
4/8/2001,89,77,0
4/9/2001,90,76,0.01
4/10/2001,89,78,0
4/11/2001,85,77,1.77
4/12/2001,89,77,0.32
4/13/2001,87,79,0.81
4/14/2001,89,78,0.12
4/15/2001,89,79,0.09
4/16/2001,88,78, T
4/17/2001,88,80,0.1
4/18/2001,88,79,0.17
4/19/2001,88,83,0
4/20/2001,89,79,0
4/21/2001,89,75,0
4/22/2001,89,76,0.06
4/23/2001,87,78,0.17
4/24/2001,86,78, T
4/25/2001,89,83,0.23
4/26/2001,89,79,0
4/27/2001,89,77,0
4/28/2001,90,78,0.71
4/29/2001,89,78,0
4/30/2001,89,78, T
5/1/2001,86,77,1.04
5/2/2001,88,78,0
5/3/2001,89,78, T
5/4/2001,89,78,0.64
5/5/2001,88,79,0.1
5/6/2001,88,83, T
5/7/2001,89,80,0.01
5/8/2001,88,82,0.01
5/9/2001,87,81,0
5/10/2001,87,76, T
5/11/2001,88,77,0.05
5/12/2001,86,80,0.39
5/13/2001,85,77,1.2
5/14/2001,86,77,0.23
5/15/2001,89,78,0
5/16/2001,88,78, T
5/17/2001,84,78,0.12
5/18/2001,83,81,0
5/19/2001,85,80,0
5/20/2001,84,81,0
5/21/2001,86,82, T
5/22/2001,88,82,0.04
5/23/2001,86,80,0.17
5/24/2001,87,79,0.64
5/25/2001,88,79, T
5/26/2001,88,83,0
5/27/2001,87,81, T
5/28/2001,87,79,0.14
5/29/2001,87,78,0.01
5/30/2001,87,79,0
5/31/2001,87,82,0
6/1/2001,87,83,0
6/2/2001,86,82, T
6/3/2001,86,80,0.13
6/4/2001,84,79,0.56
6/5/2001,87,78, T
6/6/2001,86,77,0.04
6/7/2001,87,76, T
6/8/2001,85,77,0.05
6/9/2001,85,78,0.79
6/10/2001,86,76,1.62
6/11/2001,88,77,0.44
6/12/2001,90,78,0.01
6/13/2001,88,75,0.15
6/14/2001,88,77, T
6/15/2001,87,78,0
6/16/2001,87,77,0
6/17/2001,87,78,0
6/18/2001,87,77,0
6/19/2001,87,78, T
6/20/2001,86,79,0.08
6/21/2001,86,79,0.46
6/22/2001,88,83, T
6/23/2001,87,79,0.07
6/24/2001,88,80,0
6/25/2001,87,82,0.01
6/26/2001,88,83,0
6/27/2001,87,82,0
6/28/2001,85,78,0.2
6/29/2001,86,77, T
6/30/2001,90,78, T
7/1/2001,89,79,0
7/2/2001,91,80,0.27
7/3/2001,91,78,0.34
7/4/2001,88,77,0
7/5/2001,87,76,0
7/6/2001,88,76,0
7/7/2001,88,78,0.02
7/8/2001,87,79,0.01
7/9/2001,87,82,0
7/10/2001,87,73, T
7/11/2001,88,78,0
7/12/2001,88,76, T
7/13/2001,85,80,0.12
7/14/2001,83,74,2.86
7/15/2001,84,75, T
7/16/2001,89,74,0
7/17/2001,86,74,0
7/18/2001,85,71,0
7/19/2001,86,71,0
7/20/2001,86,76,0.14
7/21/2001,87,74,0
7/22/2001,87,74,0
7/23/2001,88,79,0.17
7/24/2001,87,79,0.02
7/25/2001,83,76,0.63
7/26/2001,81,75,0.11
7/27/2001,84,78,0
7/28/2001,84,79,0
7/29/2001,85,77,0
7/30/2001,85,80,0
7/31/2001,86,74, T
8/1/2001,86,74,0
8/2/2001,87,80,0.02
8/3/2001,87,76,0.08
8/4/2001,87,79,0.57
8/5/2001,84,78,0.09
8/6/2001,87,78,0.1
8/7/2001,87,78,0.26
8/8/2001,86,81,0
8/9/2001,85,80,0
8/10/2001,85,76, T
8/11/2001,86,79,0.1
8/12/2001,87,79,0
8/13/2001,87,81,0
8/14/2001,86,78,0.27
8/15/2001,89,78,0.29
8/16/2001,90,82,0
8/17/2001,88,78,0.28
8/18/2001,83,77,0.03
8/19/2001,85,77,0.01
8/20/2001,80,77,0.38
8/21/2001,83,77,0.04
8/22/2001,85,80,0
8/23/2001,84,79,0
8/24/2001,85,79, T
8/25/2001,83,78,0
8/26/2001,86,80,0
8/27/2001,87,80,0.01
8/28/2001,87,79,0
8/29/2001,87,80,0
8/30/2001,87,81,0
8/31/2001,86,78,0.5
9/1/2001,88,76,0
9/2/2001,85,75,0.11
9/3/2001,85,79,0
9/4/2001,85,78,0
9/5/2001,86,79,0
9/6/2001,86,79,0.07
9/7/2001,85,77,0.34
9/8/2001,86,77,0.09
9/9/2001,86,79,0
9/10/2001,86,81,0
9/11/2001,87,81,0
9/12/2001,86,80, T
9/13/2001,86,81, T
9/14/2001,83,79,0.03
9/15/2001,85,79, T
9/16/2001,86,78, T
9/17/2001,86,78,0.24
9/18/2001,86,78, T
9/19/2001,87,80,0
9/20/2001,86,81,0.03
9/21/2001,82,76,1.19
9/22/2001,85,79,0.31
9/23/2001,88,78, T
9/24/2001,87,76,0.02
9/25/2001,86,77,0.16
9/26/2001,83,77,1.17
9/27/2001,86,80,0.09
9/28/2001,87,77,0.57
9/29/2001,88,79,0.05
9/30/2001,85,78,0.25
10/1/2001,83,74,2.38
10/2/2001,86,75,0.03
10/3/2001,84,78,0.24
10/4/2001,83,77,1.56
10/5/2001,87,79,0.06
10/6/2001,87,81,0
10/7/2001,87,80, T
10/8/2001,87,80,0
10/9/2001,87,78,1.04
10/10/2001,87,78,0
10/11/2001,88,76,0
10/12/2001,90,78,0.04
10/13/2001,87,76,0
10/14/2001,83,75,1.68
10/15/2001,87,77, T
10/16/2001,88,80,0.01
10/17/2001,88,79,0.14
10/18/2001,88,79,0.05
10/19/2001,87,78,0.07
10/20/2001,87,81,0
10/21/2001,86,75,0
10/22/2001,88,73,0
10/23/2001,91,73, T
10/24/2001,94,74,0.07
10/25/2001,86,78,0.02
10/26/2001,84,76,0.75
10/27/2001,86,77,0.55
10/28/2001,92,78,0
10/29/2001,88,76,0
10/30/2001,89,81,0.11
10/31/2001,88,83,0
11/1/2001,89,82,0
11/2/2001,89,81,0.01
11/3/2001,88,78,0.33
11/4/2001,88,76,1.38
11/5/2001,87,80,0
11/6/2001,87,76,0.11
11/7/2001,87,76, T
11/8/2001,86,79,0.11
11/9/2001,88,79,0.19
11/10/2001,87,77,1.92
11/11/2001,86,78,1.01
11/12/2001,88,77,0.82
11/13/2001,93,74,0
11/14/2001,93,77,0.53
11/15/2001,91,78,0
11/16/2001,89,77, T
11/17/2001,89,82, T
11/18/2001,89,83,0
11/19/2001,89,83,0
11/20/2001,89,80,0.17
11/21/2001,85,80,0.29
11/22/2001,87,81,0
11/23/2001,88,80, T
11/24/2001,88,76,1.27
11/25/2001,87,76,0.02
11/26/2001,89,76,0
11/27/2001,91,76,0
11/28/2001,91,77,0.03
11/29/2001,89,79,0.04
11/30/2001,87,76,0.31
12/1/2001,87,78,0.15
12/2/2001,87,76,0
12/3/2001,88,73,0
12/4/2001,85,78,1.7
12/5/2001,89,78,0.35
12/6/2001,82,76,2.52
12/7/2001,88,78,0.22
12/8/2001,84,77,0.38
12/9/2001,84,77,0.59
12/10/2001,87,78,0
12/11/2001,88,78,0
12/12/2001,84,75,1.28
12/13/2001,89,80,0.1
12/14/2001,87,76,1.42
12/15/2001,92,76,0.94
12/16/2001,94,78, T
12/17/2001,91,81,0.62
12/18/2001,90,78,0
12/19/2001,90,79,0
12/20/2001,90,80,0
12/21/2001,91,78,0
12/22/2001,91,79,0
12/23/2001,91,79,0
12/24/2001,93,80,0.05
12/25/2001,90,79,0.82
12/26/2001,85,79,2.29
12/27/2001,88,79,0.05
12/28/2001,88,79,0.3
12/29/2001,85,79,0.19
12/30/2001,91,78,1.72
12/31/2001,87,82,0.08
1/1/2002,90,83, T
1/2/2002,86,77,1.44
1/3/2002,91,77,0.04
1/4/2002,89,81,0
1/5/2002,89,81,0
1/6/2002,89,80,0
1/7/2002,94,80,0.02
1/8/2002,91,78,0.02
1/9/2002,94,77,0
1/10/2002,90,78,0.68
1/11/2002,90,78,0.03
1/12/2002,94,78,0
1/13/2002,91,79,0
1/14/2002,88,79,0.04
1/15/2002,90,77,0.11
1/16/2002,85,77,1.32
1/17/2002,85,79,0.4
1/18/2002,88,77,0.91
1/19/2002,89,78,0.11
1/20/2002,90,76,0.1
1/21/2002,89,79,0.38
1/22/2002,90,81, T
1/23/2002,90,82, T
1/24/2002,90,80,0.05
1/25/2002,90,78,0.33
1/26/2002,90,78, T
1/27/2002,90,76,0
1/28/2002,90,82,0.01
1/29/2002,91,79,1.07
1/30/2002,90,78,0.11
1/31/2002,92,79,0.25
2/1/2002,92,80,0.23
2/2/2002,93,80,0.01
2/3/2002,95,78,0
2/4/2002,91,78,0
2/5/2002,91,79,0
2/6/2002,91,80,0.07
2/7/2002,91,80, T
2/8/2002,92,80,0.03
2/9/2002,90,79, T
2/10/2002,91,78,0.35
2/11/2002,93,78,0.02
2/12/2002,90,80,0.1
2/13/2002,91,80,0.56
2/14/2002,92,81,0.17
2/15/2002,85,79,2.05
2/16/2002,90,81,0.28
2/17/2002,91,81,0.2
2/18/2002,93,85,0
2/19/2002,87,80,0.7
2/20/2002,90,81,0
2/21/2002,91,79,0
2/22/2002,91,80,0
2/23/2002,90,81,0.02
2/24/2002,90,80, T
2/25/2002,92,79,0.05
2/26/2002,91,78,0.01
2/27/2002,94,77,0
2/28/2002,94,79,0
3/1/2002,94,79, T
3/2/2002,91,78,0.22
3/3/2002,91,78,0.06
3/4/2002,91,80,0.09
3/5/2002,91,78,0.11
3/6/2002,93,78,0.64
3/7/2002,92,78,0.02
3/8/2002,90,78,0.38
3/9/2002,90,78, T
3/10/2002,90,77,0
3/11/2002,90,78,0
3/12/2002,91,77,0
3/13/2002,94,77,0
3/14/2002,93,80,0.14
3/15/2002,87,78,2.4
3/16/2002,91,80,0
3/17/2002,89,78,0.1
3/18/2002,90,79,0.05
3/19/2002,89,78,1.07
3/20/2002,86,78,2
3/21/2002,86,77,2.18
3/22/2002,89,76,0.67
3/23/2002,90,77,0
3/24/2002,88,77,0.92
3/25/2002,91,76,0.76
3/26/2002,91,77,0
3/27/2002,90,79,0
3/28/2002,90,82,0
3/29/2002,91,81,0.33
3/30/2002,89,80,0.23
3/31/2002,90,78,0.19
4/1/2002,90,81,0.17
4/2/2002,91,84,0
4/3/2002,89,79,0.56
4/4/2002,89,76,2
4/5/2002,89,79,0.14
4/6/2002,89,80,1.03
4/7/2002,90,78,0.16
4/8/2002,90,82,0.06
4/9/2002,88,81,0.06
4/10/2002,90,83,0
4/11/2002,90,76,2.01
4/12/2002,89,76,1.04
4/13/2002,92,77, T
4/14/2002,92,78,0
4/15/2002,93,80, T
4/16/2002,93,80,0
4/17/2002,89,79,0.24
4/18/2002,90,78,0.99
4/19/2002,85,77,3.27
4/20/2002,87,79,2.3
4/21/2002,86,79, T
4/22/2002,89,77,0.04
4/23/2002,88,80,0.02
4/24/2002,86,79,2.04
4/25/2002,89,78,0.84
4/26/2002,89,78,0.22
4/27/2002,89,77,0.01
4/28/2002,91,77,0.21
4/29/2002,89,77,0.43
4/30/2002,89,82, T
5/1/2002,89,80,0.04
5/2/2002,90,78,0
5/3/2002,89,77,0
5/4/2002,89,82,0
5/5/2002,88,80,0.38
5/6/2002,89,82,0.49
5/7/2002,90,78,0.54
5/8/2002,89,79, T
5/9/2002,86,80,1.31
5/10/2002,85,79,1.44
5/11/2002,89,84, T
5/12/2002,86,79,1.04
5/13/2002,90,78,0
5/14/2002,90,82,0.05
5/15/2002,89,83,0
5/16/2002,89,83,0.02
5/17/2002,89,82, T
5/18/2002,88,76,0.3
5/19/2002,89,76,1.27
5/20/2002,88,82,0.01
5/21/2002,87,83, T
5/22/2002,86,82, T
5/23/2002,87,80,0.08
5/24/2002,83,78,1.45
5/25/2002,88,80,0.56
5/26/2002,88,78,2.22
5/27/2002,88,78, T
5/28/2002,88,83,0
5/29/2002,88,82,0
5/30/2002,88,82,0
5/31/2002,88,74,0
6/1/2002,88,75,0
6/2/2002,87,76,0
6/3/2002,87,73,0
6/4/2002,88,74,0
6/5/2002,88,78,0.02
6/6/2002,88,77,0
6/7/2002,86,80,0.39
6/8/2002,83,79,0.78
6/9/2002,84,79,1.4
6/10/2002,88,76,0.91
6/11/2002,88,76,0.71
6/12/2002,87,80,0.04
6/13/2002,88,79,0
6/14/2002,88,79,0.52
6/15/2002,88,83,0.01
6/16/2002,87,82,0.04
6/17/2002,87,82, T
6/18/2002,87,81,0
6/19/2002,85,77,0.03
6/20/2002,87,80,0
6/21/2002,86,78,0.03
6/22/2002,87,81,0
6/23/2002,86,77,0.04
6/24/2002,87,72,0.06
6/25/2002,87,78,0.02
6/26/2002,85,78,0.79
6/27/2002,86,79,0.13
6/28/2002,87,82,0
6/29/2002,88,83,0
6/30/2002,88,81,0
7/1/2002,87,80,0.03
7/2/2002,88,77,0.04
7/3/2002,88,82,0
7/4/2002,87,83,0
7/5/2002,87,82,0
7/6/2002,87,82,0
7/7/2002,88,81,0
7/8/2002,84,78,0.52
7/9/2002,85,76,1.88
7/10/2002,87,76,0
7/11/2002,87,78,0.62
7/12/2002,89,81,0.12
7/13/2002,90,80,0.03
7/14/2002,91,79,0.04
7/15/2002,86,78,3.86
7/16/2002,84,80,0.88
7/17/2002,85,79, T
7/18/2002,84,78,0.03
7/19/2002,85,77,0.09
7/20/2002,85,77,0.18
7/21/2002,84,77,0.14
7/22/2002,85,78,0.66
7/23/2002,86,78,0.01
7/24/2002,86,78,0.15
7/25/2002,86,77,0.06
7/26/2002,91,75,0.11
7/27/2002,88,80,0.34
7/28/2002,91,80,0.32
7/29/2002,87,77,0.26
7/30/2002,86,79,0.02
7/31/2002,84,79,0.03
8/1/2002,83,78, T
8/2/2002,84,77, T
8/3/2002,83,78,0
8/4/2002,84,78,0
8/5/2002,84,78, T
8/6/2002,84,77, T
8/7/2002,86,74, T
8/8/2002,87,74,0.12
8/9/2002,87,76,0.04
8/10/2002,86,80,0
8/11/2002,82,77,0.25
8/12/2002,82,76,1.36
8/13/2002,84,80, T
8/14/2002,85,80,0.07
8/15/2002,87,77,0.13
8/16/2002,91,76,0
8/17/2002,92,77,0
8/18/2002,87,77,0
8/19/2002,91,77,0.02
8/20/2002,85,77,1.09
8/21/2002,81,76,2.66
8/22/2002,82,76,0.12
8/23/2002,81,75,0.02
8/24/2002,83,77,0
8/25/2002,84,77, T
8/26/2002,86,77, T
8/27/2002,87,74,0
8/28/2002,86,75, T
8/29/2002,88,75,0
8/30/2002,87,76,0.01
8/31/2002,87,81,0.01
9/1/2002,85,81, T
9/2/2002,87,79,0.08
9/3/2002,87,77,0.26
9/4/2002,92,80,0
9/5/2002,85,78,0
9/6/2002,83,76,0.12
9/7/2002,86,78, T
9/8/2002,87,81,0.02
9/9/2002,87,81, T
9/10/2002,87,82,0
9/11/2002,87,81,0
9/12/2002,87,81,0
9/13/2002,88,79,0
9/14/2002,87,77,0.01
9/15/2002,83,77,0.01
9/16/2002,83,76,0.04
9/17/2002,90,76,0.07
9/18/2002,89,74,0
9/19/2002,91,77,0
9/20/2002,89,75,0.05
9/21/2002,88,81,0.09
9/22/2002,88,81,0.01
9/23/2002,87,79,0.1
9/24/2002,89,81,0
9/25/2002,89,81,0.05
9/26/2002,85,78,0.54
9/27/2002,82,78,0.04
9/28/2002,82,78,0.13
9/29/2002,85,79, T
9/30/2002,86,81, T
10/1/2002,87,81,0
10/2/2002,87,80,0
10/3/2002,87,80,0
10/4/2002,87,78, T
10/5/2002,86,81, T
10/6/2002,84,76,3.32
10/7/2002,82,75,2.12
10/8/2002,82,77,1.38
10/9/2002,83,77,0.88
10/10/2002,81,78,0.08
10/11/2002,81,77,0.08
10/12/2002,87,78,0.05
10/13/2002,85,79,0.98
10/14/2002,87,81, T
10/15/2002,85,80,0.01
10/16/2002,82,76,0.83
10/17/2002,85,78,0.92
10/18/2002,83,78,0.9
10/19/2002,86,79,0.02
10/20/2002,85,81,0
10/21/2002,86,80,0
10/22/2002,86,74,0
10/23/2002,87,72,0
10/24/2002,87,74,0
10/25/2002,88,77,0.04
10/26/2002,89,81,0.06
10/27/2002,89,82,0.2
10/28/2002,89,83, T
10/29/2002,89,82, T
10/30/2002,90,82,0
10/31/2002,88,82, T
11/1/2002,88,78,0.44
11/2/2002,88,78,0.08
11/3/2002,88,77,0.01
11/4/2002,91,77,0
11/5/2002,89,81,0.19
11/6/2002,90,84,0
11/7/2002,89,80,0.28
11/8/2002,89,81,0.06
11/9/2002,89,80,0.33
11/10/2002,90,79,0.59
11/11/2002,89,78,1.06
11/12/2002,89,77,0.09
11/13/2002,89,76,0.84
11/14/2002,89,80,0.01
11/15/2002,86,77,3.26
11/16/2002,87,78,1.02
11/17/2002,89,79,0.15
11/18/2002,90,81,0.31
11/19/2002,93,79,0.8
11/20/2002,91,79,0
11/21/2002,91,78,0.53
11/22/2002,85,78,1.67
11/23/2002,89,80,0.24
11/24/2002,90,79,1.5
11/25/2002,92,79, T
11/26/2002,88,78,0.24
11/27/2002,92,79,0.33
11/28/2002,93,78,0.01
11/29/2002,89,78,0.81
11/30/2002,83,78,0.41
12/1/2002,87,79,0.59
12/2/2002,87,78,0
12/3/2002,93,80,0.01
12/4/2002,91,81,0
12/5/2002,91,82,0.05
12/6/2002,90,79,0.08
12/7/2002,89,80,0
12/8/2002,89,82,0
12/9/2002,88,78,0.6
12/10/2002,89,78,0
12/11/2002,89,82,0.07
12/12/2002,89,83,0.03
12/13/2002,90,80,0.72
12/14/2002,86,80,1.45
12/15/2002,91,81,0.45
12/16/2002,92,80,0.1
12/17/2002,87,78,0.26
12/18/2002,90,77, T
12/19/2002,90,80,0.02
12/20/2002,90,80, T
12/21/2002,89,83,0.19
12/22/2002,86,80,0.77
12/23/2002,86,78,0.62
12/24/2002,90,83,0.07
12/25/2002,89,81,0.04
12/26/2002,89,77,0.78
12/27/2002,89,76,0.77
12/28/2002,89,82,0.1
12/29/2002,88,82,0
12/30/2002,89,82,0
12/31/2002,90,80,0.17
1/1/2003,86,80,0.62
1/2/2003,90,79,0.35
1/3/2003,92,78,0.21
1/4/2003,90,80,0.04
1/5/2003,91,81,0.08
1/6/2003,88,79,0
1/7/2003,89,80,0
1/8/2003,90,80,0
1/9/2003,89,79,0.08
1/10/2003,91,85, T
1/11/2003,90,81,0.78
1/12/2003,94,84,0.15
1/13/2003,92,83,0.29
1/14/2003,91,82, T
1/15/2003,91,81,0.08
1/16/2003,91,83,0
1/17/2003,91,85,0.11
1/18/2003,91,82,0.26
1/19/2003,91,82,0.09
1/20/2003,89,79,0.73
1/21/2003,90,79,0.92
1/22/2003,89,80,0.3
1/23/2003,86,79,0.04
1/24/2003,91,78,1.16
1/25/2003,90,80,0.7
1/26/2003,92,82,0.06
1/27/2003,91,85,0.01
1/28/2003,87,81, T
1/29/2003,86,80,0.35
1/30/2003,89,79, T
1/31/2003,88,79,0
2/1/2003,87,76,0.06
2/2/2003,89,77,0.01
2/3/2003,88,78,0.76
2/4/2003,88,78,0.07
2/5/2003,90,78,1.22
2/6/2003,86,78,0.06
2/7/2003,89,80,0.02
2/8/2003,89,81,0.1
2/9/2003,91,80,0.33
2/10/2003,92,79,1.2
2/11/2003,88,78,0.26
2/12/2003,89,77,0
2/13/2003,89,76,0
2/14/2003,89,76,0
2/15/2003,89,76,0
2/16/2003,89,76,0
2/17/2003,90,77,0.01
2/18/2003,90,80,0.15
2/19/2003,90,80,0.13
2/20/2003,90,81,0.05
2/21/2003,89,79,0.32
2/22/2003,89,78,1.3
2/23/2003,89,79,1.92
2/24/2003,88,79,0.05
2/25/2003,91,79,0
2/26/2003,91,78,0.01
2/27/2003,90,76,1.08
2/28/2003,91,79,0
3/1/2003,91,78,0.03
3/2/2003,90,79,0
3/3/2003,92,78,0.53
3/4/2003,91,77, T
3/5/2003,89,78,0.19
3/6/2003,85,79,0.2
3/7/2003,89,79,0.06
3/8/2003,91,81,0.14
3/9/2003,91,78,0.02
3/10/2003,91,77,0
3/11/2003,91,82,0
3/12/2003,91,79,0
3/13/2003,90,80,0.56
3/14/2003,90,80,0.26
3/15/2003,91,80,0.22
3/16/2003,91,77, T
3/17/2003,92,82, T
3/18/2003,91,82,0.15
3/19/2003,90,79,1.53
3/20/2003,90,78,0.25
3/21/2003,91,78,0.19
3/22/2003,92,78,2.07
3/23/2003,91,79,0
3/24/2003,90,79,0.04
3/25/2003,89,80,0.54
3/26/2003,88,78,0.76
3/27/2003,91,79,0
3/28/2003,88,78,1.61
3/29/2003,89,78,0.79
3/30/2003,89,82,0
3/31/2003,91,77,0.27
4/1/2003,89,78,0.01
4/2/2003,88,79, T
4/3/2003,88,76, T
4/4/2003,88,77, T
4/5/2003,87,75,0.02
4/6/2003,87,79,0.04
4/7/2003,86,79,0.1
4/8/2003,89,79,0.3
4/9/2003,89,78,0.4
4/10/2003,87,77,3.05
4/11/2003,89,81,0.45
4/12/2003,85,76,1.14
4/13/2003,89,77,0.76
4/14/2003,87,78,0.45
4/15/2003,88,77,0
4/16/2003,88,77,0
4/17/2003,88,78,0.4
4/18/2003,88,82,0.01
4/19/2003,86,78,0.67
4/20/2003,87,78,0.91
4/21/2003,86,78,0.19
4/22/2003,88,78,0.29
4/23/2003,88,77, T
4/24/2003,87,76,0.01
4/25/2003,88,78,0
4/26/2003,87,76,0
4/27/2003,88,79, T
4/28/2003,88,77,0
4/29/2003,89,83,0
4/30/2003,89,82,0.13
5/1/2003,88,80,0
5/2/2003,88,79,0.41
5/3/2003,89,79,0
5/4/2003,89,83,0.07
5/5/2003,88,81,0.09
5/6/2003,88,78,0.08
5/7/2003,88,81,0.01
5/8/2003,87,79,0.2
5/9/2003,88,77,0.05
5/10/2003,88,80,0.31
5/11/2003,87,80,0.51
5/12/2003,88,81,0.08
5/13/2003,88,83,0
5/14/2003,88,82,0.02
5/15/2003,87,79,0.29
5/16/2003,86,77,0.96
5/17/2003,85,77,2.15
5/18/2003,83,78,0.89
5/19/2003,83,75,10.68
5/20/2003,83,77,1.1
5/21/2003,87,78,0
5/22/2003,87,76,0
5/23/2003,87,78,0.16
5/24/2003,87,82,0.03
5/25/2003,86,81,0.01
5/26/2003,86,80,0
5/27/2003,86,78,0.12
5/28/2003,85,77,0.32
5/29/2003,85,78,0.73
5/30/2003,85,80,0.11
5/31/2003,82,78,0.21
6/1/2003,85,79,0.02
6/2/2003,85,79,0.01
6/3/2003,84,80,0.04
6/4/2003,86,80,0.03
6/5/2003,85,78,0.24
6/6/2003,83,77,0.45
6/7/2003,83,76,1.48
6/8/2003,85,75,0.87
6/9/2003,85,76,0
6/10/2003,86,73,0
6/11/2003,88,76,0
6/12/2003,86,75,0.12
6/13/2003,82,75,4.3
6/14/2003,84,78,0
6/15/2003,85,80,0.02
6/16/2003,83,80,0
6/17/2003,84,80, T
6/18/2003,85,80,0
6/19/2003,85,80,0
6/20/2003,85,80, T
6/21/2003,83,79,0
6/22/2003,83,78,0
6/23/2003,83,78,0
6/24/2003,83,77,0
6/25/2003,84,68, T
6/26/2003,84,76,0.03
6/27/2003,83,76,0
6/28/2003,82,77, T
6/29/2003,82,75,0.05
6/30/2003,84,74,0.03
7/1/2003,85,78,0.17
7/2/2003,85,77,0.09
7/3/2003,85,80,0
7/4/2003,85,79,0
7/5/2003,86,78,0.03
7/6/2003,85,80,0
7/7/2003,86,80,0.01
7/8/2003,87,77,0.02
7/9/2003,86,75,0.56
7/10/2003,86,76,0.09
7/11/2003,84,76,0.95
7/12/2003,87,75,1.26
7/13/2003,81,75,0.29
7/14/2003,82,76,0
7/15/2003,82,76,0
7/16/2003,82,76,0.11
7/17/2003,81,77,0.62
7/18/2003,86,77,0.07
7/19/2003,84,78, T
7/20/2003,85,80,0.21
7/21/2003,84,78,0.03
7/22/2003,84,77,0.22
7/23/2003,86,76,1.25
7/24/2003,82,74,1.38
7/25/2003,83,75,3.11
7/26/2003,81,77,0.44
7/27/2003,80,76,0.09
7/28/2003,82,76,0.98
7/29/2003,85,77,0.01
7/30/2003,85,79,0.01
7/31/2003,84,76,0.43
8/1/2003,84,78,0.18
8/2/2003,86,74,0.01
8/3/2003,86,74,0.32
8/4/2003,82,75,0.06
8/5/2003,85,75,0
8/6/2003,83,78,0
8/7/2003,80,76,0.05
8/8/2003,81,76,0.29
8/9/2003,83,77,0.15
8/10/2003,82,77,0.07
8/11/2003,85,76,0.26
8/12/2003,85,75,0.15
8/13/2003,86,76,0.83
8/14/2003,80,74,0.21
8/15/2003,82,76,0
8/16/2003,83,77,0
8/17/2003,83,77,0
8/18/2003,84,78,0.35
8/19/2003,82,76,1.13
8/20/2003,85,73,0
8/21/2003,85,75,0.29
8/22/2003,85,77,1.26
8/23/2003,86,73,0
8/24/2003,83,74,0.74
8/25/2003,81,74,0
8/26/2003,80,76, T
8/27/2003,81,74,0.06
8/28/2003,83,73,0.08
8/29/2003,83,74,0.13
8/30/2003,82,74,0.14
8/31/2003,80,76,0.02
9/1/2003,83,76,0.04
9/2/2003,84,78,0.17
9/3/2003,82,78,0.08
9/4/2003,85,80,0
9/5/2003,85,78,0.49
9/6/2003,82,76,0.07
9/7/2003,86,79,0
9/8/2003,88,76,0
9/9/2003,89,76,0.02
9/10/2003,86,76,0.02
9/11/2003,83,74,0
9/12/2003,87,75,0.12
9/13/2003,88,80,0
9/14/2003,88,78,0.13
9/15/2003,88,81, T
9/16/2003,89,81,0.06
9/17/2003,88,81,0
9/18/2003,86,78,0.01
9/19/2003,88,80,0
9/20/2003,87,80,0.01
9/21/2003,87,78,0
9/22/2003,81,73,2.83
9/23/2003,82,76,0.1
9/24/2003,85,75,0.1
9/25/2003,85,79,0
9/26/2003,86,77,0.04
9/27/2003,85,79, T
9/28/2003,85,78,0.02
9/29/2003,85,79,0
9/30/2003,88,78,0.01
10/1/2003,82,76,0.43
10/2/2003,84,73,0
10/3/2003,88,75, T
10/4/2003,87,81,0.01
10/5/2003,88,78,0.02
10/6/2003,86,76,0
10/7/2003,87,79,0
10/8/2003,86,79,0
10/9/2003,88,79,0.02
10/10/2003,86,79, T
10/11/2003,87,79,0
10/12/2003,87,79,0
10/13/2003,89,80, T
10/14/2003,90,78,0
10/15/2003,88,77,0
10/16/2003,89,77,0.16
10/17/2003,90,81,0
10/18/2003,89,80,0.03
10/19/2003,86,77,1.74
10/20/2003,83,76,0.03
10/21/2003,87,77, T
10/22/2003,88,78,0
10/23/2003,88,77,0.03
10/24/2003,85,76,2.36
10/25/2003,85,78,0.23
10/26/2003,86,79,0
10/27/2003,85,80,0.04
10/28/2003,87,79,0.08
10/29/2003,87,75,1.3
10/30/2003,88,79, T
10/31/2003,88,81,0
11/1/2003,87,80,0.03
11/2/2003,87,80,0.03
11/3/2003,87,81,0
11/4/2003,89,79,0.05
11/5/2003,84,80,0.06
11/6/2003,89,80,0.01
11/7/2003,84,76,0.91
11/8/2003,89,76,0.1
11/9/2003,88,75,0.95
11/10/2003,88,77,0.02
11/11/2003,86,75,2.12
11/12/2003,83,76,0.24
11/13/2003,85,76,0.92
11/14/2003,84,78,0.36
11/15/2003,84,77,2.28
11/16/2003,85,78,0.23
11/17/2003,84,76,3.5
11/18/2003,84,74,1.91
11/19/2003,85,77,2.85
11/20/2003,85,77,0.49
11/21/2003,86,80,0
11/22/2003,84,78,0.01
11/23/2003,83,76,1.26
11/24/2003,85,78,0
11/25/2003,85,78,0.16
11/26/2003,87,76,0.24
11/27/2003,87,81,0
11/28/2003,87,76,0.9
11/29/2003,88,76,0.9
11/30/2003,87,78,0.86
12/1/2003,87,76,1.11
12/2/2003,88,76,0.44
12/3/2003,84,76,1.94
12/4/2003,88,77,1.52
12/5/2003,84,77,0.92
12/6/2003,86,77,0.04
12/7/2003,88,80,0.19
12/8/2003,87,77,1.1
12/9/2003,88,76,0
12/10/2003,87,77,0.36
12/11/2003,88,77,0.01
12/12/2003,89,82,0
12/13/2003,88,76,2.24
12/14/2003,87,77, T
12/15/2003,88,78,0.18
12/16/2003,88,78,1.13
12/17/2003,88,79,0.49
12/18/2003,89,78,0.23
12/19/2003,87,78,0.8
12/20/2003,89,78,0.07
12/21/2003,89,77,0
12/22/2003,88,75,2.94
12/23/2003,86,77,0.01
12/24/2003,87,77, T
12/25/2003,87,81,0
12/26/2003,88,79,0.19
12/27/2003,87,77,0
12/28/2003,88,75, T
12/29/2003,87,78,0.5
12/30/2003,87,78,0.23
12/31/2003,89,78,0.13
1/1/2004,89,79,0.37
1/2/2004,87,79,1
1/3/2004,84,80,1.06
1/4/2004,86,79,2
1/5/2004,85,81,2.34
1/6/2004,86,79,0.32
1/7/2004,87,79,0
1/8/2004,86,78,0.12
1/9/2004,85,77,0.08
1/10/2004,84,74,0.07
1/11/2004,83,73,0
1/12/2004,83,74,0.03
1/13/2004,85,76,0.04
1/14/2004,86,76,0.11
1/15/2004,88,77,0.38
1/16/2004,82,75,0.12
1/17/2004,82,75,2.22
1/18/2004,85,77,0.38
1/19/2004,88,77,0
1/20/2004,87,78,0.03
1/21/2004,87,78, T
1/22/2004,88,80,0.35
1/23/2004,87,80,0.27
1/24/2004,86,79,0.07
1/25/2004,87,78,0.65
1/26/2004,86,78,0.02
1/27/2004,87,76, T
1/28/2004,87,80,0
1/29/2004,86,80,0
1/30/2004,86,80,0
1/31/2004,86,78,0.28
2/1/2004,88,77,0
2/2/2004,89,77,0.05
2/3/2004,89,76,0.02
2/4/2004,88,77,0.28
2/5/2004,81,75,1.78
2/6/2004,84,75,0.63
2/7/2004,85,78,0.11
2/8/2004,86,78,0.12
2/9/2004,80,74,3.6
2/10/2004,83,74,1.8
2/11/2004,87,74,0.61
2/12/2004,86,76,0.43
2/13/2004,87,77,0.16
2/14/2004,87,79,0.03
2/15/2004,87,78,0.47
2/16/2004,86,78,0.17
2/17/2004,85,74, T
2/18/2004,87,75,0.94
2/19/2004,85,77,0.88
2/20/2004,86,77,0.11
2/21/2004,86,80,0
2/22/2004,87,80,0
2/23/2004,85,78,0.09
2/24/2004,85,76,0.4
2/25/2004,85,75,0.19
2/26/2004,85,76,0.05
2/27/2004,87,78,0.55
2/28/2004,87,76,0.1
2/29/2004,86,81,0.08
3/1/2004,86,75,0
3/2/2004,86,76,0.02
3/3/2004,85,75,0.78
3/4/2004,86,75,0
3/5/2004,84,75,0
3/6/2004,83,77,0.76
3/7/2004,82,75,2.33
3/8/2004,86,79,0.02
3/9/2004,87,80, T
3/10/2004,87,77,0.12
3/11/2004,87,80,0.03
3/12/2004,87,78,0
3/13/2004,86,78,0.14
3/14/2004,88,79,0.32
3/15/2004,87,78,0.12
3/16/2004,87,81,0
3/17/2004,87,76,0.2
3/18/2004,87,76,0.14
3/19/2004,87,79,0.36
3/20/2004,85,76,0.58
3/21/2004,85,78,0.13
3/22/2004,85,76,0.01
3/23/2004,86,76,1.05
3/24/2004,85,75,1.44
3/25/2004,85,77,2.26
3/26/2004,84,75,1.35
3/27/2004,85,76,0.32
3/28/2004,85,80,0.04
3/29/2004,87,78,0.43
3/30/2004,87,77,0.15
3/31/2004,85,77,0.5
4/1/2004,82,77,0.16
4/2/2004,84,76,0.38
4/3/2004,85,76,0.01
4/4/2004,85,72,0
4/5/2004,86,74,0
4/6/2004,85,74,0
4/7/2004,85,76,0.01
4/8/2004,87,79,0.18
4/9/2004,87,80,0
4/10/2004,87,78,0.49
4/11/2004,85,77, T
4/12/2004,86,78,0.19
4/13/2004,86,78,0.31
4/14/2004,87,77,0.06
4/15/2004,88,76,0.03
4/16/2004,85,76,0.08
4/17/2004,83,75,2.49
4/18/2004,86,77,0.7
4/19/2004,85,77,0
4/20/2004,85,74,0
4/21/2004,86,80,0.06
4/22/2004,86,77,0.49
4/23/2004,87,79,0.02
4/24/2004,87,81,0.05
4/25/2004,87,80,0.31
4/26/2004,83,73,1.32
4/27/2004,86,76,0
4/28/2004,86,75,0
4/29/2004,87,79,0.06
4/30/2004,86,80, T
5/1/2004,86,79,0.01
5/2/2004,86,78,0
5/3/2004,85,75,0.11
5/4/2004,83,77,0
5/5/2004,85,78,0.42
5/6/2004,85,76,0
5/7/2004,84,74,0.81
5/8/2004,83,77,0.62
5/9/2004,83,75,0.17
5/10/2004,84,74,0
5/11/2004,84,75,0
5/12/2004,84,73,0
5/13/2004,86,72,0
5/14/2004,86,73,0
5/15/2004,87,75,1.88
5/16/2004,85,74,0
5/17/2004,86,77,0.02
5/18/2004,86,77,0.02
5/19/2004,85,76,0.21
5/20/2004,86,79,0.06
5/21/2004,86,75,0
5/22/2004,86,79,0
5/23/2004,86,76, T
5/24/2004,86,76,0
5/25/2004,85,77, T
5/26/2004,86,80,0
5/27/2004,85,76,0.56
5/28/2004,85,77,0.16
5/29/2004,86,80,0.01
5/30/2004,86,79,0
5/31/2004,85,77,0.05
6/1/2004,85,80,0
6/2/2004,82,78,0.1
6/3/2004,85,76,0.57
6/4/2004,84,76, T
6/5/2004,86,79,0
6/6/2004,86,75,0.12
6/7/2004,85,73, T
6/8/2004,85,73,0
6/9/2004,86,79,0
6/10/2004,86,79,0.12
6/11/2004,86,79,0.02
6/12/2004,85,75,0.05
6/13/2004,85,71,0
6/14/2004,85,70,0
6/15/2004,85,78,0.01
6/16/2004,86,79,0.01
6/17/2004,84,77,0.23
6/18/2004,83,79, T
6/19/2004,85,74,0.17
6/20/2004,83,74,0.17
6/21/2004,84,76,0.02
6/22/2004,84,78,0.01
6/23/2004,85,80,0
6/24/2004,85,80,0
6/25/2004,83,78,0.02
6/26/2004,84,76,0.1
6/27/2004,83,78,0.07
6/28/2004,85,78,0.02
6/29/2004,82,71,1.94
6/30/2004,83,74,0.01
7/1/2004,82,75,0.51
7/2/2004,83,74,1.15
7/3/2004,81,72,1.32
7/4/2004,83,76,0.04
7/5/2004,83,72,0.33
7/6/2004,82,74,0.08
7/7/2004,82,77,0.04
7/8/2004,82,77,0.32
7/9/2004,83,76,0.03
7/10/2004,81,74,1.46
7/11/2004,86,76,0.2
7/12/2004,87,76, T
7/13/2004,82,76,1.35
7/14/2004,82,78,0.05
7/15/2004,84,79,0
7/16/2004,82,79, T
7/17/2004,83,77,0.01
7/18/2004,86,79,0
7/19/2004,85,74,0
7/20/2004,85,80,0
7/21/2004,85,80,0
7/22/2004,86,80,0
7/23/2004,86,79,0.02
7/24/2004,87,77,0
7/25/2004,87,76,0.02
7/26/2004,87,74,0.05
7/27/2004,87,81,0
7/28/2004,86,80,0.05
7/29/2004,87,80,0
7/30/2004,86,81,0.02
7/31/2004,87,79,0.06
8/1/2004,88,77,0.01
8/2/2004,88,77,0.05
8/3/2004,86,78,0.91
8/4/2004,81,76,0.4
8/5/2004,82,77,0.61
8/6/2004,85,77,0.21
8/7/2004,86,76,0
8/8/2004,85,74,0
8/9/2004,86,77,0
8/10/2004,85,80,0
8/11/2004,85,80,0
8/12/2004,84,77,0
8/13/2004,87,76,0
8/14/2004,87,78,0.19
8/15/2004,85,76,0.01
8/16/2004,87,76,0
8/17/2004,85,73,0
8/18/2004,85,74,0
8/19/2004,87,79,0
8/20/2004,87,77,0
8/21/2004,87,77,0.02
8/22/2004,87,78,0.17
8/23/2004,87,81,0
8/24/2004,86,76,0
8/25/2004,87,74,0
8/26/2004,88,75,0
8/27/2004,87,77,0.01
8/28/2004,88,80,0
8/29/2004,86,75,0
8/30/2004,87,76,0.08
8/31/2004,84,78,0
9/1/2004,83,77,0
9/2/2004,85,77,0
9/3/2004,86,79,0.08
9/4/2004,87,80,0.02
9/5/2004,85,80, T
9/6/2004,85,78,0.27
9/7/2004,85,77,0.44
9/8/2004,85,74,2.79
9/9/2004,81,75,0.31
9/10/2004,86,77,0.15
9/11/2004,83,76,0
9/12/2004,84,76,0
9/13/2004,87,80,0.01
9/14/2004,87,80,0.01
9/15/2004,86,76,0.42
9/16/2004,87,80,0
9/17/2004,87,80,0
9/18/2004,87,77,0
9/19/2004,86,78,0
9/20/2004,86,80,0
9/21/2004,87,78,0
9/22/2004,87,76, T
9/23/2004,87,82,0
9/24/2004,87,81,0
9/25/2004,89,81,0.28
9/26/2004,88,77,0.04
9/27/2004,85,77,0.08
9/28/2004,87,76,0.04
9/29/2004,86,76,0.01
9/30/2004,86,79,0
10/1/2004,85,80,0.02
10/2/2004,81,75,1.3
10/3/2004,86,76,0
10/4/2004,86,80,0
10/5/2004,86,77,0
10/6/2004,87,78, T
10/7/2004,88,82,0.23
10/8/2004,87,80,0.05
10/9/2004,89,81,0.01
10/10/2004,88,82,0
10/11/2004,88,77,0.07
10/12/2004,89,81,0
10/13/2004,89,79,0.11
10/14/2004,84,78,2.42
10/15/2004,82,77,1.55
10/16/2004,86,75,0.37
10/17/2004,88,77,0.43
10/18/2004,87,82,0.14
10/19/2004,87,81, T
10/20/2004,86,80,0
10/21/2004,86,81,0.04
10/22/2004,86,78,0.32
10/23/2004,88,80,0.07
10/24/2004,84,78,0.41
10/25/2004,84,77,1.58
10/26/2004,86,79,0.57
10/27/2004,85,76,1.27
10/28/2004,87,76,0.15
10/29/2004,87,79,0.16
10/30/2004,86,77,0.25
10/31/2004,89,76,0
11/1/2004,88,78,0
11/2/2004,89,78,0.06
11/3/2004,86,79,0.15
11/4/2004,85,77, T
11/5/2004,87,75,0
11/6/2004,87,76,0.71
11/7/2004,86,77,0.07
11/8/2004,85,80,0.13
11/9/2004,88,80,0
11/10/2004,89,77,0
11/11/2004,87,77,0.43
11/12/2004,87,79,0.84
11/13/2004,89,81,0.12
11/14/2004,87,82,0.01
11/15/2004,87,81,0
11/16/2004,88,81,0.02
11/17/2004,87,82,0
11/18/2004,86,81,0
11/19/2004,85,78,0.23
11/20/2004,88,78,0
11/21/2004,85,77,0.02
11/22/2004,84,78,0.45
11/23/2004,87,81,0.22
11/24/2004,88,81,0.34
11/25/2004,89,79,0
11/26/2004,87,80,0.04
11/27/2004,88,79,0.1
11/28/2004,89,81,0
11/29/2004,87,79,0.04
11/30/2004,89,82,0.02
12/1/2004,87,83,0.14
12/2/2004,87,81,0
12/3/2004,89,80,0
12/4/2004,84,79,2.65
12/5/2004,86,81,0
12/6/2004,87,81,0.02
12/7/2004,84,79,0.19
12/8/2004,88,78,1.65
12/9/2004,88,82,0.02
12/10/2004,85,76,1.24
12/11/2004,86,81,0
12/12/2004,89,80,0
12/13/2004,89,83,0.02
12/14/2004,89,81,0.04
12/15/2004,87,80,0.85
12/16/2004,88,79,0.49
12/17/2004,87,83,0
12/18/2004,88,83,0
12/19/2004,88,83,0.01
12/20/2004,89,81,0.02
12/21/2004,89,82,0.01
12/22/2004,89,83, T
12/23/2004,89,84,0.01
12/24/2004,89,82,0.11
12/25/2004,89,82,0
12/26/2004,90,83,0.01
12/27/2004,90,83,0
12/28/2004,90,81,0.07
12/29/2004,89,83,0.07
12/30/2004,91,84,0.06
12/31/2004,88,78,2
1/1/2005,87,79,0.93
1/2/2005,89,78,3.05
1/3/2005,89,78,0
1/4/2005,90,78,0.42
1/5/2005,90,82,0.05
1/6/2005,89,78,0.62
1/7/2005,88,77,1.03
1/8/2005,88,77, T
1/9/2005,89,78,0
1/10/2005,89,82,0.04
1/11/2005,87,80,0.71
1/12/2005,90,80,0.17
1/13/2005,89,81,0.55
1/14/2005,89,79,0.07
1/15/2005,90,80,0
1/16/2005,88,81,0.6
1/17/2005,87,80,0.04
1/18/2005,85,78,1.29
1/19/2005,85,78,0.76
1/20/2005,87,77,0.09
1/21/2005,87,79,0.22
1/22/2005,90,79,0.01
1/23/2005,89,79,0.25
1/24/2005,89,80,0.48
1/25/2005,90,80,0.26
1/26/2005,89,80,1.12
1/27/2005,90,80,0.01
1/28/2005,91,80,0
1/29/2005,89,80,0.05
1/30/2005,88,79,0.24
1/31/2005,89,81,0.19
2/1/2005,83,77,3.79
2/2/2005,87,83,0.05
2/3/2005,88,80,1.43
2/4/2005,90,82,0.06
2/5/2005,90,83,0.04
2/6/2005,90,82,0.01
2/7/2005,90,80,0
2/8/2005,89,80,0.04
2/9/2005,89,80,0
2/10/2005,90,81,0
2/11/2005,89,83,0.13
2/12/2005,90,82,0.05
2/13/2005,88,82,0.98
2/14/2005,90,82,0.02
2/15/2005,85,80,1.03
2/16/2005,85,81,1.51
2/17/2005,88,81,0.92
2/18/2005,89,80,0.1
2/19/2005,89,80,0
2/20/2005,89,79,0
2/21/2005,88,77,0.03
2/22/2005,90,77,0
2/23/2005,90,79, T
2/24/2005,90,82,0.08
2/25/2005,89,80,0.08
2/26/2005,89,81,0.13
2/27/2005,89,81,0.07
2/28/2005,90,83,0
3/1/2005,90,80,0.04
3/2/2005,89,81,0.49
3/3/2005,88,79,0.95
3/4/2005,90,79,0.13
3/5/2005,90,84,0.03
3/6/2005,90,85,0.03
3/7/2005,90,78,1.89
3/8/2005,90,78,1.09
3/9/2005,90,79,0
3/10/2005,90,78,0
3/11/2005,88,78,1.03
3/12/2005,90,80,0
3/13/2005,89,79,0.66
3/14/2005,85,77,1.73
3/15/2005,87,78,0.22
3/16/2005,88,76,0
3/17/2005,89,83, T
3/18/2005,89,82,0
3/19/2005,89,83,0
3/20/2005,88,80,0.28
3/21/2005,89,79,0.03
3/22/2005,89,81,0.02
3/23/2005,89,83,0
3/24/2005,89,78,0
3/25/2005,88,77,2.7
3/26/2005,89,81,0.19
3/27/2005,89,80,0.98
3/28/2005,88,80,0.03
3/29/2005,91,82,0
3/30/2005,90,83, T
3/31/2005,89,81,0.42
4/1/2005,90,82,0.07
4/2/2005,89,82,0.24
4/3/2005,87,80,0.58
4/4/2005,89,81,0.03
4/5/2005,88,78,0.19
4/6/2005,86,79,1.03
4/7/2005,89,80,0.33
4/8/2005,89,81,0.15
4/9/2005,89,78,1.53
4/10/2005,90,79,0.22
4/11/2005,89,80,0.99
4/12/2005,89,81,0
4/13/2005,89,79,0.02
4/14/2005,89,80,0.29
4/15/2005,90,80,0.44
4/16/2005,87,78,0.97
4/17/2005,90,80,0.32
4/18/2005,89,80,0.17
4/19/2005,88,80,0.28
4/20/2005,87,80,1.2
4/21/2005,86,79,0.54
4/22/2005,84,78,0.74
4/23/2005,84,79,0.87
4/24/2005,86,79,0.86
4/25/2005,88,76,0.52
4/26/2005,87,76,0.71
4/27/2005,87,76,0.24
4/28/2005,88,77,0.08
4/29/2005,89,77,0.73
4/30/2005,88,79,0.16
5/1/2005,88,80,0.07
5/2/2005,86,76,1.15
5/3/2005,87,79,0.47
5/4/2005,87,82,0
5/5/2005,87,81,0.1
5/6/2005,86,79,0.07
5/7/2005,87,78,0.2
5/8/2005,86,80,0.01
5/9/2005,86,80,0.21
5/10/2005,88,77,0
5/11/2005,88,76,0
5/12/2005,86,77,0
5/13/2005,86,80,0
5/14/2005,85,80,0
5/15/2005,85,79,0
5/16/2005,86,79,0
5/17/2005,86,78, T
5/18/2005,86,77,0.02
5/19/2005,82,77,0.58
5/20/2005,85,80,0
5/21/2005,85,78,0.1
5/22/2005,85,77,0.15
5/23/2005,86,80,0.02
5/24/2005,84,74,5.21
5/25/2005,86,78,0.49
5/26/2005,86,78,0.02
5/27/2005,85,78,0.04
5/28/2005,85,80, T
5/29/2005,85,79,0.01
5/30/2005,83,77,0.23
5/31/2005,84,75,1.63
6/1/2005,82,76,1.05
6/2/2005,84,75,0.74
6/3/2005,83,75,1.19
6/4/2005,84,75,0
6/5/2005,84,74,0
6/6/2005,85,80,0.22
6/7/2005,85,79,0.63
6/8/2005,85,79,0.2
6/9/2005,86,78,0.28
6/10/2005,87,78,0.25
6/11/2005,85,78, T
6/12/2005,87,79,0.01
6/13/2005,86,78, T
6/14/2005,85,74,0.06
6/15/2005,82,77,1.71
6/16/2005,84,77,1.19
6/17/2005,84,78,0.9
6/18/2005,83,80,0.07
6/19/2005,86,78,0.96
6/20/2005,86,80,0
6/21/2005,85,80,0.01
6/22/2005,86,77,0.19
6/23/2005,84,77, T
6/24/2005,85,78, T
6/25/2005,85,79, T
6/26/2005,84,76, T
6/27/2005,80,75,0.39
6/28/2005,84,77,0.24
6/29/2005,82,77,1.8
6/30/2005,81,76,1.23
7/1/2005,79,75,1.2
7/2/2005,77,73,0.1
7/3/2005,78,74, T
7/4/2005,80,74,0
7/5/2005,82,75,0.02
7/6/2005,82,75,0.06
7/7/2005,85,76,0.13
7/8/2005,85,76,0.18
7/9/2005,82,74,0.81
7/10/2005,85,80, T
7/11/2005,85,80,0
7/12/2005,84,77,0.3
7/13/2005,86,76, T
7/14/2005,86,81,0
7/15/2005,86,81, T
7/16/2005,86,80,0.01
7/17/2005,85,80, T
7/18/2005,86,80,0
7/19/2005,86,80,0.12
7/20/2005,85,78,0.21
7/21/2005,84,78,0.27
7/22/2005,86,80,0
7/23/2005,85,76,1.26
7/24/2005,86,79,0.69
7/25/2005,87,74,0
7/26/2005,84,76,0
7/27/2005,83,76,0
7/28/2005,86,73,0
7/29/2005,84,74, T
7/30/2005,84,74,0
7/31/2005,85,75,0.07
8/1/2005,81,78,0.02
8/2/2005,83,75,2.12
8/3/2005,86,75,0.54
8/4/2005,78,75,1.68
8/5/2005,83,74,0.06
8/6/2005,85,77,0.3
8/7/2005,87,76,0.28
8/8/2005,86,79,0.07
8/9/2005,86,80,0.03
8/10/2005,84,78,0
8/11/2005,82,79,0
8/12/2005,83,78,0.01
8/13/2005,84,78,0.05
8/14/2005,86,79,0.01
8/15/2005,85,75,0.25
8/16/2005,85,78,0.08
8/17/2005,81,74,4.61
8/18/2005,86,74,0.05
8/19/2005,86,77,0.24
8/20/2005,87,74,0
8/21/2005,86,75,0
8/22/2005,82,76,0.99
8/23/2005,84,78, T
8/24/2005,86,80,0
8/25/2005,86,81,0
8/26/2005,85,79,0.14
8/27/2005,86,81,0
8/28/2005,87,77,0
8/29/2005,85,76, T
8/30/2005,84,79,0.06
8/31/2005,83,74,1.97
9/1/2005,85,75,0.03
9/2/2005,86,81,0.01
9/3/2005,88,78,0.08
9/4/2005,87,77,0.27
9/5/2005,86,78,0.24
9/6/2005,87,80,0.09
9/7/2005,85,79,0.07
9/8/2005,86,80,0.04
9/9/2005,86,80, T
9/10/2005,82,75,1.28
9/11/2005,89,79,0.02
9/12/2005,86,76,0.02
9/13/2005,87,80, T
9/14/2005,87,80,0.02
9/15/2005,87,78,0.33
9/16/2005,86,79, T
9/17/2005,86,81,0
9/18/2005,86,80,0.02
9/19/2005,86,78,0.47
9/20/2005,86,78,0.21
9/21/2005,87,78, T
9/22/2005,86,76,1.6
9/23/2005,86,78,2.25
9/24/2005,85,77,1.12
9/25/2005,83,81,0
9/26/2005,86,79,0.12
9/27/2005,85,77,0.06
9/28/2005,83,77,1.99
9/29/2005,81,76,2.39
9/30/2005,83,75,1.7
10/1/2005,83,78,0.01
10/2/2005,86,77,0
10/3/2005,85,76,0.21
10/4/2005,85,77,0.82
10/5/2005,85,78,0.15
10/6/2005,86,80, T
10/7/2005,87,81,0
10/8/2005,86,81,0
10/9/2005,85,80,0
10/10/2005,86,79,0.05
10/11/2005,87,78, T
10/12/2005,86,76,0.84
10/13/2005,87,76,0.85
10/14/2005,87,75,0
10/15/2005,86,76,0
10/16/2005,87,76,0.18
10/17/2005,87,78,0.16
10/18/2005,87,78,1.11
10/19/2005,87,80,0
10/20/2005,88,79,0.16
10/21/2005,88,79,0.34
10/22/2005,88,77,0
10/23/2005,88,82,0
10/24/2005,88,80,0.1
10/25/2005,89,78,0.8
10/26/2005,88,75,0.18
10/27/2005,88,77,0.23
10/28/2005,89,82,0.08
10/29/2005,89,79,0.03
10/30/2005,89,78,0.01
10/31/2005,90,77,0.44
11/1/2005,88,79,0.02
11/2/2005,89,81,0.25
11/3/2005,87,79,0.55
11/4/2005,87,79,0.67
11/5/2005,88,81,0.08
11/6/2005,86,78,1.51
11/7/2005,88,78,0.39
11/8/2005,87,76,0.89
11/9/2005,84,78,0.45
11/10/2005,88,78,0.01
11/11/2005,88,78,0.03
11/12/2005,88,80,0.08
11/13/2005,87,79, T
11/14/2005,89,78,1.27
11/15/2005,88,78,0
11/16/2005,89,79,0.06
11/17/2005,88,78,0.54
11/18/2005,87,78,0.85
11/19/2005,89,80,0.19
11/20/2005,89,78, T
11/21/2005,88,79,0.02
11/22/2005,89,83,0
11/23/2005,89,80,0
11/24/2005,89,79,0.01
11/25/2005,91,78,0
11/26/2005,91,82, T
11/27/2005,88,80,0.11
11/28/2005,88,80,0.03
11/29/2005,83,78,1.44
11/30/2005,89,80,0.24
12/1/2005,87,79,0.03
12/2/2005,86,78,0.56
12/3/2005,86,79,0.3
12/4/2005,88,79,0.05
12/5/2005,89,80,0.07
12/6/2005,88,83,0
12/7/2005,84,76,2.45
12/8/2005,83,77,1.5
12/9/2005,87,78,0
12/10/2005,87,78,0.27
12/11/2005,87,79,0.56
12/12/2005,88,78,0.21
12/13/2005,87,81,0.12
12/14/2005,87,78,1.92
12/15/2005,86,79,2.47
12/16/2005,86,79,0.06
12/17/2005,84,76,2.54
12/18/2005,88,77,0.07
12/19/2005,88,79,0.03
12/20/2005,88,80,1.73
12/21/2005,88,77,3.06
12/22/2005,90,79,0.01
12/23/2005,88,78,0.08
12/24/2005,88,77,0.85
12/25/2005,87,76, T
12/26/2005,84,76,3.18
12/27/2005,88,76,0.64
12/28/2005,85,75,0.75
12/29/2005,89,77,0
12/30/2005,90,77,0.29
12/31/2005,83,77,1.09
1/1/2006,89,79,0.08
1/2/2006,87,77,1.68
1/3/2006,88,78,0.08
1/4/2006,85,78,0.01
1/5/2006,88,76,0.86
1/6/2006,88,77,0.41
1/7/2006,88,76,1.28
1/8/2006,85,76,0.28
1/9/2006,84,74,0.74
1/10/2006,88,76,0.32
1/11/2006,88,78,0.36
1/12/2006,84,79,2.32
1/13/2006,85,75,1.27
1/14/2006,89,82,0
1/15/2006,88,80,0.07
1/16/2006,88,80,0.32
1/17/2006,88,79,0
1/18/2006,88,76,0.54
1/19/2006,85,76,0.16
1/20/2006,84,76,1.09
1/21/2006,88,80,0.03
1/22/2006,88,80,0.13
1/23/2006,89,78,0.32
1/24/2006,87,77,0.69
1/25/2006,88,77,0.73
1/26/2006,88,77,0.44
1/27/2006,88,77,0.76
1/28/2006,86,76,0.86
1/29/2006,82,76,1
1/30/2006,82,75,1.37
1/31/2006,84,77,5.67
2/1/2006,83,78,5.53
2/2/2006,83,79,1.82
2/3/2006,84,77,1.38
2/4/2006,83,78,1.27
2/5/2006,84,78,1.49
2/6/2006,83,77,4.22
2/7/2006,83,77,0.91
2/8/2006,82,78,2.42
2/9/2006,85,78,1.56
2/10/2006,85,78,1.13
2/11/2006,85,81,0.03
2/12/2006,89,81,0.16
2/13/2006,88,82,0
2/14/2006,89,82,0
2/15/2006,87,80,0
2/16/2006,88,78,0.03
2/17/2006,86,77,2.1
2/18/2006,86,76,0.25
2/19/2006,86,76,0.09
2/20/2006,88,77,0
2/21/2006,88,77,0.3
2/22/2006,83,76,3.92
2/23/2006,89,78,0
2/24/2006,88,78,0
2/25/2006,89,81,0.16
2/26/2006,88,78,0.43
2/27/2006,89,82,0.01
2/28/2006,89,82,0.06
3/1/2006,89,82,0.01
3/2/2006,89,79,0.12
3/3/2006,89,78,0
3/4/2006,89,78, T
3/5/2006,90,79,0.66
3/6/2006,89,79,0.25
3/7/2006,88,78,0.35
3/8/2006,88,78,0.38
3/9/2006,89,78,0.25
3/10/2006,88,77,0.41
3/11/2006,88,77,0.06
3/12/2006,89,78,0.23
3/13/2006,88,78,0.07
3/14/2006,86,76,1.76
3/15/2006,89,79,0.28
3/16/2006,89,76, T
3/17/2006,89,80,0.58
3/18/2006,88,78,0.99
3/19/2006,88,78,0.02
3/20/2006,88,81,0.09
3/21/2006,90,78,0.57
3/22/2006,89,77,0.28
3/23/2006,89,81,0.05
3/24/2006,89,82,0.09
3/25/2006,89,82, T
3/26/2006,89,78,0.32
3/27/2006,88,79,0.31
3/28/2006,89,78,0.02
3/29/2006,88,78,0
3/30/2006,89,82,0.01
3/31/2006,88,77,0.34
4/1/2006,90,81,0.07
4/2/2006,88,80,0.29
4/3/2006,89,82,0.02
4/4/2006,87,80,1.19
4/5/2006,88,80,0.19
4/6/2006,88,79,0.1
4/7/2006,88,79,0.1
4/8/2006,89,79,0.24
4/9/2006,89,80, T
4/10/2006,88,79,0.16
4/11/2006,84,78,0.68
4/12/2006,89,75,0.94
4/13/2006,88,75,0.06
4/14/2006,90,77,0
4/15/2006,89,76,0
4/16/2006,91,76,0.5
4/17/2006,89,77,0
4/18/2006,88,78, T
4/19/2006,89,78, T
4/20/2006,89,79,0.14
4/21/2006,89,78, T
4/22/2006,89,78,0.01
4/23/2006,88,78,0
4/24/2006,89,79,0
4/25/2006,91,83,0.01
4/26/2006,90,83,0.03
4/27/2006,89,81,0.16
4/28/2006,89,79,0.01
4/29/2006,88,77,0.23
4/30/2006,89,76,0.02
5/1/2006,92,78,0
5/2/2006,87,79,0.26
5/3/2006,89,78,0.16
5/4/2006,91,79,0.12
5/5/2006,88,78,0
5/6/2006,90,79,0
5/7/2006,89,81,0.4
5/8/2006,91,80,0.46
5/9/2006,89,79,0.01
5/10/2006,89,79,0
5/11/2006,91,81,0.07
5/12/2006,88,78,1.16
5/13/2006,91,80,1
5/14/2006,89,78,0.94
5/15/2006,85,80,0.3
5/16/2006,89,79,0.67
5/17/2006,90,77,0.56
5/18/2006,90,79,0.28
5/19/2006,89,78,0.41
5/20/2006,87,78,0.03
5/21/2006,88,79,0.34
5/22/2006,87,78,0.47
5/23/2006,89,80,0.19
5/24/2006,87,80,0.03
5/25/2006,86,81,0
5/26/2006,86,81,0
5/27/2006,88,80,0
5/28/2006,87,81,0
5/29/2006,87,80, T
5/30/2006,87,82,0
5/31/2006,89,79, T
6/1/2006,89,76,0
6/2/2006,88,75,0
6/3/2006,88,75,0
6/4/2006,88,77,0
6/5/2006,87,81,0
6/6/2006,84,78,0.12
6/7/2006,86,80,0
6/8/2006,88,82,0
6/9/2006,87,80, T
6/10/2006,86,78,0.66
6/11/2006,87,78,0.11
6/12/2006,86,80,0
6/13/2006,85,80,0
6/14/2006,85,79, T
6/15/2006,84,79,0.05
6/16/2006,85,77,0.74
6/17/2006,87,76,0
6/18/2006,89,75,0.07
6/19/2006,87,75,0
6/20/2006,82,77,1.33
6/21/2006,85,78,0.06
6/22/2006,87,76,0.01
6/23/2006,87,77,0.27
6/24/2006,86,76,0.08
6/25/2006,84,76,0.67
6/26/2006,86,78,0.21
6/27/2006,85,76,0.13
6/28/2006,83,77,0.52
6/29/2006,86,81,0
6/30/2006,87,77,0.04
7/1/2006,85,75,0.33
7/2/2006,86,77,0
7/3/2006,85,78,0.08
7/4/2006,86,79,0.14
7/5/2006,86,77,0.01
7/6/2006,86,75,0.02
7/7/2006,84,76,0.51
7/8/2006,82,77,0.23
7/9/2006,83,78,0.16
7/10/2006,82,77,0.02
7/11/2006,87,76,0.1
7/12/2006,81,76,0
7/13/2006,81,77,0.03
7/14/2006,85,77,0
7/15/2006,85,76,0.07
7/16/2006,87,80,0
7/17/2006,82,75,0.59
7/18/2006,81,75,0.08
7/19/2006,84,77,0.03
7/20/2006,84,78,0.09
7/21/2006,86,80, T
7/22/2006,85,76,0
7/23/2006,85,75,0.93
7/24/2006,85,80,0
7/25/2006,83,76,0.56
7/26/2006,83,75,1.36
7/27/2006,85,74,1.23
7/28/2006,83,74,1.54
7/29/2006,83,76,0.01
7/30/2006,83,75,0.15
7/31/2006,82,78,0
8/1/2006,82,77,0
8/2/2006,84,75,0.01
8/3/2006,84,79,0
8/4/2006,83,79,0.01
8/5/2006,82,77,0.06
8/6/2006,83,78,0.02
8/7/2006,83,77,0.12
8/8/2006,85,78,0.13
8/9/2006,85,79,0
8/10/2006,86,80,0
8/11/2006,83,77,0.45
8/12/2006,85,77,0.03
8/13/2006,86,80,0.06
8/14/2006,87,79,0
8/15/2006,87,77,0.15
8/16/2006,86,80,0.01
8/17/2006,85,77,1.79
8/18/2006,80,76,0.27
8/19/2006,83,76, T
8/20/2006,85,79,0.07
8/21/2006,87,78,0.55
8/22/2006,87,77,0
8/23/2006,87,76, T
8/24/2006,86,80,0
8/25/2006,87,80, T
8/26/2006,86,77,1.03
8/27/2006,84,75,2.09
8/28/2006,86,78,0.16
8/29/2006,84,76,0.75
8/30/2006,85,74,0.23
8/31/2006,86,75,0.76
9/1/2006,81,76,1.26
9/2/2006,85,77,0.24
9/3/2006,81,77,1.52
9/4/2006,83,76,1.23
9/5/2006,83,76,1.12
9/6/2006,86,78,0.02
9/7/2006,86,80,0
9/8/2006,86,75,0
9/9/2006,86,80,0
9/10/2006,86,78,0.03
9/11/2006,87,79,0.11
9/12/2006,87,79,0.02
9/13/2006,85,78,0.13
9/14/2006,87,79,0.05
9/15/2006,88,77,0
9/16/2006,88,76,0.37
9/17/2006,86,77,0.01
9/18/2006,81,75,4.47
9/19/2006,85,77,0.09
9/20/2006,86,78,0
9/21/2006,85,78,0.06
9/22/2006,83,78,0.02
9/23/2006,81,74,3.64
9/24/2006,81,76,0.22
9/25/2006,83,77,0.35
9/26/2006,83,75,0.75
9/27/2006,83,74,0.07
9/28/2006,84,78,0.01
9/29/2006,85,80,0
9/30/2006,86,80,0.04
10/1/2006,86,79,0
10/2/2006,85,75,0.39
10/3/2006,84,74,0.07
10/4/2006,87,74,0
10/5/2006,87,76, T
10/6/2006,87,76,1.18
10/7/2006,83,76,0.67
10/8/2006,85,79,0.03
10/9/2006,85,77,0
10/10/2006,85,79,0
10/11/2006,87,80, T
10/12/2006,86,80, T
10/13/2006,86,80,0
10/14/2006,85,78,0.16
10/15/2006,86,78,0.07
10/16/2006,88,78,0.2
10/17/2006,87,77,0.8
10/18/2006,85,75,1.75
10/19/2006,82,75,0.44
10/20/2006,84,75,0.07
10/21/2006,81,77,0.1
10/22/2006,82,77,0.14
10/23/2006,85,76,0.17
10/24/2006,85,76,1.2
10/25/2006,81,75,1.39
10/26/2006,85,78,0.47
10/27/2006,85,79,0.01
10/28/2006,85,78,0.03
10/29/2006,85,79, T
10/30/2006,84,79, T
10/31/2006,83,76,0.41
11/1/2006,85,76,0.07
11/2/2006,85,80,0
11/3/2006,84,75,0.21
11/4/2006,86,75,2.19
11/5/2006,80,75,2.34
11/6/2006,81,74,0.72
11/7/2006,86,78,0.01
11/8/2006,84,75,0.08
11/9/2006,88,74,0
11/10/2006,88,77, T
11/11/2006,87,81,0
11/12/2006,87,81,0
11/13/2006,86,80,0
11/14/2006,86,76,0.98
11/15/2006,85,77,1.93
11/16/2006,85,75,1.3
11/17/2006,85,73,2.43
11/18/2006,85,75,0.34
11/19/2006,85,76,0.16
11/20/2006,83,74,1.92
11/21/2006,85,74,0.01
11/22/2006,87,79,0.01
11/23/2006,86,81,0
11/24/2006,87,78,0.16
11/25/2006,87,78,0.21
11/26/2006,87,76,0.28
11/27/2006,87,78,0
11/28/2006,89,81,0.01
11/29/2006,84,77,0.72
11/30/2006,87,76,0.01
12/1/2006,88,79, T
12/2/2006,88,78,0.52
12/3/2006,89,76,0
12/4/2006,83,75,4.72
12/5/2006,85,76,0.79
12/6/2006,87,75,0.49
12/7/2006,89,76,0.05
12/8/2006,89,78,0.03
12/9/2006,90,75,1.14
12/10/2006,89,77,1.35
12/11/2006,85,77,0.29
12/12/2006,82,77,2.19
12/13/2006,85,77,0.66
12/14/2006,82,77,1.27
12/15/2006,86,78,1.63
12/16/2006,86,78,0.81
12/17/2006,87,76,0.4
12/18/2006,88,78,0.42
12/19/2006,88,79,0.6
12/20/2006,88,78,0.51
12/21/2006,88,81, T
12/22/2006,87,82,0
12/23/2006,88,77,0.81
12/24/2006,86,78,0.78
12/25/2006,86,77,0.48
12/26/2006,87,78,0.38
12/27/2006,87,77,0.08
12/28/2006,85,76,0.74
12/29/2006,88,79,0.25
12/30/2006,89,82,0.03
12/31/2006,89,79,0.21
1/1/2007,89,80,0.27
1/2/2007,89,78,0.43
1/3/2007,88,80,0.83
1/4/2007,89,80,0.16
1/5/2007,88,79,0.02
1/6/2007,86,76,1.53
1/7/2007,86,76,0.46
1/8/2007,87,81, T
1/9/2007,88,77,0
1/10/2007,88,78,0
1/11/2007,89,79,0.02
1/12/2007,89,80,0.04
1/13/2007,85,80,0.73
1/14/2007,87,76,0.7
1/15/2007,89,83,0
1/16/2007,89,80,0
1/17/2007,89,79,0.33
1/18/2007,87,78,0.97
1/19/2007,85,78,5.56
1/20/2007,88,80,0.02
1/21/2007,87,77,3.35
1/22/2007,83,77,3.02
1/23/2007,85,78,0.56
1/24/2007,87,82,0
1/25/2007,87,82,0
1/26/2007,87,78,0.02
1/27/2007,88,79,0.01
1/28/2007,85,78,1.07
1/29/2007,88,78,0.58
1/30/2007,89,80,0.27
1/31/2007,87,82,0.06
2/1/2007,87,77,0.64
2/2/2007,88,77,3.03
2/3/2007,86,77,0.79
2/4/2007,88,76,0
2/5/2007,89,82,0.03
2/6/2007,91,83, T
2/7/2007,91,80,0.17
2/8/2007,89,80,0.21
2/9/2007,89,79,0.35
2/10/2007,89,80,0.39
2/11/2007,89,79,0
2/12/2007,87,80,0.04
2/13/2007,89,79,0.02
2/14/2007,89,80,0.2
2/15/2007,87,78,0.56
2/16/2007,88,77,0
2/17/2007,88,77,0
2/18/2007,90,80,0
2/19/2007,88,79,1.03
2/20/2007,86,77,1.09
2/21/2007,87,79, T
2/22/2007,88,77,0.92
2/23/2007,87,77,0.1
2/24/2007,89,82,0.01
2/25/2007,89,79,0.02
2/26/2007,87,78,0.39
2/27/2007,90,77,0.35
2/28/2007,89,77,0.01
3/1/2007,89,80,0.18
3/2/2007,89,82,0.16
3/3/2007,87,79,0.68
3/4/2007,86,78,0.94
3/5/2007,92,79,0.11
3/6/2007,90,80,0.49
3/7/2007,88,79,0.39
3/8/2007,87,79,0.06
3/9/2007,88,78,0.14
3/10/2007,92,81,0.13
3/11/2007,90,76,0.39
3/12/2007,86,77,1.43
3/13/2007,89,81,0.2
3/14/2007,89,80,1.61
3/15/2007,88,79,2.08
3/16/2007,86,76,1.68
3/17/2007,88,78,0.2
3/18/2007,89,78,0.39
3/19/2007,85,78,1.85
3/20/2007,89,80,0.12
3/21/2007,87,78,1.49
3/22/2007,89,80,0.06
3/23/2007,91,79,0.01
3/24/2007,89,80,0.58
3/25/2007,91,79,1.12
3/26/2007,88,79,0.02
3/27/2007,88,78,0.67
3/28/2007,85,78,1.46
3/29/2007,88,77,0.2
3/30/2007,89,78,0.05
3/31/2007,84,77,1.42
4/1/2007,90,79,0.1
4/2/2007,88,77,0.25
4/3/2007,87,78,0.06
4/4/2007,90,77,0.65
4/5/2007,89,76,0
4/6/2007,90,78,0
4/7/2007,90,81,0.06
4/8/2007,90,83,0.13
4/9/2007,89,82,0.1
4/10/2007,89,79,0.25
4/11/2007,90,76,0
4/12/2007,89,76,0
4/13/2007,90,78,0.12
4/14/2007,89,80,0.78
4/15/2007,90,81,0.01
4/16/2007,90,79,0.02
4/17/2007,88,80,0.17
4/18/2007,89,79,0.22
4/19/2007,88,78,0.23
4/20/2007,86,79,0.01
4/21/2007,89,79,0
4/22/2007,90,79,0.02
4/23/2007,89,79,0.01
4/24/2007,89,80,0.01
4/25/2007,88,78,0.69
4/26/2007,89,82,0.34
4/27/2007,87,79,0.3
4/28/2007,89,84,0.05
4/29/2007,89,81,0.03
4/30/2007,89,83,0.05
5/1/2007,88,78,0.09
5/2/2007,89,82,0
5/3/2007,89,83,0.03
5/4/2007,86,78,1.2
5/5/2007,88,80,0.14
5/6/2007,85,79,0.44
5/7/2007,85,79,0.47
5/8/2007,87,80,0.6
5/9/2007,87,79,0.08
5/10/2007,83,78,0.34
5/11/2007,89,78,0.09
5/12/2007,87,79,0.23
5/13/2007,87,80,0
5/14/2007,89,81,0.1
5/15/2007,88,79,1.69
5/16/2007,89,78,0.02
5/17/2007,87,79,0.42
5/18/2007,88,78,1.45
5/19/2007,82,76,0.64
5/20/2007,87,76,0.1
5/21/2007,87,75,1.33
5/22/2007,87,75,0.55
5/23/2007,87,77,0.02
5/24/2007,86,76,0
5/25/2007,87,80,0
5/26/2007,87,78,0.05
5/27/2007,85,77,2.43
5/28/2007,85,76,1.44
5/29/2007,85,78,0.61
5/30/2007,87,77,1.93
5/31/2007,84,78,0.85
6/1/2007,87,77,1.5
6/2/2007,88,79,0.05
6/3/2007,86,78,0.11
6/4/2007,87,80,0.08
6/5/2007,88,82, T
6/6/2007,88,80,0.06
6/7/2007,88,83,0
6/8/2007,87,83,0
6/9/2007,87,82,0
6/10/2007,87,81,0.03
6/11/2007,87,78,0.05
6/12/2007,88,82,0
6/13/2007,88,82,0
6/14/2007,87,79,0.12
6/15/2007,87,78,0.25
6/16/2007,88,77,0.03
6/17/2007,88,76,0.54
6/18/2007,88,77,0.04
6/19/2007,87,81,0.1
6/20/2007,88,83,0
6/21/2007,88,83, T
6/22/2007,87,80,0.17
6/23/2007,87,82,0.04
6/24/2007,87,80,0.02
6/25/2007,88,78,0
6/26/2007,87,78,0
6/27/2007,85,79,0.22
6/28/2007,84,78,0.03
6/29/2007,84,80,0
6/30/2007,86,80, T
7/1/2007,87,81, T
7/2/2007,87,80,0
7/3/2007,88,76,0.38
7/4/2007,90,78,0.01
7/5/2007,84,80,0.06
7/6/2007,86,80,0.01
7/7/2007,83,80, T
7/8/2007,85,79, T
7/9/2007,83,80,0
7/10/2007,85,80,0.09
7/11/2007,88,76,0.01
7/12/2007,88,79,0.61
7/13/2007,87,77,0
7/14/2007,87,82,0
7/15/2007,87,79,0.05
7/16/2007,86,81,0.09
7/17/2007,88,78,0
7/18/2007,86,77,0.05
7/19/2007,87,81,0.01
7/20/2007,87,81,0.01
7/21/2007,87,79,0.09
7/22/2007,88,78,0.01
7/23/2007,87,79,0.15
7/24/2007,88,79,0.95
7/25/2007,87,81,0
7/26/2007,84,77,1.26
7/27/2007,88,78,0.01
7/28/2007,88,77,0.04
7/29/2007,87,81,0.01
7/30/2007,87,80,0.11
7/31/2007,87,78,1.66
8/1/2007,86,76,0.54
8/2/2007,86,79,0.01
8/3/2007,86,81,0
8/4/2007,86,81,0
8/5/2007,87,81,0
8/6/2007,87,81,0
8/7/2007,88,75,0
8/8/2007,88,76,0
8/9/2007,87,81,0.03
8/10/2007,86,77,1.38
8/11/2007,87,79,0.05
8/12/2007,86,78,0.41
8/13/2007,85,77,0.09
8/14/2007,87,81,0.1
8/15/2007,87,81,0.29
8/16/2007,87,79,0.41
8/17/2007,87,81,0.03
8/18/2007,86,81,0
8/19/2007,87,81,0
8/20/2007,85,80,0
8/21/2007,84,80,0
8/22/2007,87,80,0.04
8/23/2007,86,77,0.72
8/24/2007,87,80,0.3
8/25/2007,87,80,0.2
8/26/2007,88,80,0.01
8/27/2007,87,82,0
8/28/2007,87,82,0
8/29/2007,87,82,0
8/30/2007,87,80,0.11
8/31/2007,88,82,0.02
9/1/2007,87,81,0.04
9/2/2007,87,78,0.51
9/3/2007,82,77,2.72
9/4/2007,84,79,1.01
9/5/2007,83,78,1.61
9/6/2007,87,79,0.07
9/7/2007,86,78,0.08
9/8/2007,86,80,0
9/9/2007,88,80,0.03
9/10/2007,88,81, T
9/11/2007,88,82,0
9/12/2007,86,79,0.64
9/13/2007,87,79,0.02
9/14/2007,88,80,0.13
9/15/2007,88,78,0.24
9/16/2007,88,78,0.58
9/17/2007,88,81,0.02
9/18/2007,86,78,0.5
9/19/2007,87,78,0.79
9/20/2007,87,77,0
9/21/2007,87,77,0
9/22/2007,88,80,0.07
9/23/2007,88,80,0.48
9/24/2007,88,78,3.64
9/25/2007,89,78,1.02
9/26/2007,88,80,0.05
9/27/2007,88,79,1.02
9/28/2007,88,78,0.91
9/29/2007,87,78,0.6
9/30/2007,87,79,0.24
10/1/2007,89,78,0.01
10/2/2007,89,79,0.03
10/3/2007,86,78, T
10/4/2007,89,80,0.04
10/5/2007,85,78,0.47
10/6/2007,87,78,0.08
10/7/2007,87,77,2.44
10/8/2007,87,78,0.17
10/9/2007,90,79,0.89
10/10/2007,89,79,1.29
10/11/2007,87,79,0.75
10/12/2007,87,76,0.51
10/13/2007,86,75,0.56
10/14/2007,87,78,0.16
10/15/2007,88,78,0.44
10/16/2007,89,81,0.01
10/17/2007,89,80,0.13
10/18/2007,89,78,0.11
10/19/2007,87,78,0.49
10/20/2007,86,78,2.2
10/21/2007,85,77,0.39
10/22/2007,87,78,0.66
10/23/2007,89,80,0.07
10/24/2007,90,78,0.04
10/25/2007,88,77,0.02
10/26/2007,90,77,0.66
10/27/2007,88,78,2.43
10/28/2007,89,77,0.01
10/29/2007,87,76,0.67
10/30/2007,90,82,0.23
10/31/2007,90,80,0.22
11/1/2007,89,77,1.04
11/2/2007,88,78,0
11/3/2007,90,80,0.08
11/4/2007,89,82,0.18
11/5/2007,89,79,0.51
11/6/2007,89,81,0.26
11/7/2007,87,80,0.1
11/8/2007,87,80,0.22
11/9/2007,89,77,0.05
11/10/2007,88,79, T
11/11/2007,89,83,0
11/12/2007,91,79,0.11
11/13/2007,86,79,0.83
11/14/2007,87,79,0.4
11/15/2007,88,78,0.22
11/16/2007,89,79,0.65
11/17/2007,87,79,0.14
11/18/2007,87,83, T
11/19/2007,89,82, T
11/20/2007,82,77,0.53
11/21/2007,86,77,4.67
11/22/2007,88,77,1.54
11/23/2007,84,79,0.11
11/24/2007,87,79,0.25
11/25/2007,89,80,0.01
11/26/2007,90,80,0
11/27/2007,91,79,0
11/28/2007,90,82,0.25
11/29/2007,85,75,2.34
11/30/2007,89,79,0.12
12/1/2007,87,78,0.61
12/2/2007,87,78,0.62
12/3/2007,89,80,0.06
12/4/2007,90,80, T
12/5/2007,89,78,0.49
12/6/2007,84,79,1
12/7/2007,89,80,0.19
12/8/2007,88,79,1.51
12/9/2007,86,78,0.1
12/10/2007,87,78,0.37
12/11/2007,87,78,0.26
12/12/2007,88,78,0.26
12/13/2007,89,80,0
12/14/2007,88,77,1.13
12/15/2007,89,76,0.27
12/16/2007,90,80,0.26
12/17/2007,89,82,0
12/18/2007,90,81,0.02
12/19/2007,88,80,0.91
12/20/2007,89,81,0.03
12/21/2007,89,80,0
12/22/2007,90,81,0
12/23/2007,90,79,0.02
12/24/2007,89,79,0.19
12/25/2007,87,80,0.12
12/26/2007,88,77,0
12/27/2007,87,78,0.45
12/28/2007,85,77,0.63
12/29/2007,85,77,0.36
12/30/2007,90,77,0
12/31/2007,89,78,0
1/1/2008,90,80,0
1/2/2008,89,80,0.27
1/3/2008,87,78,0.57
1/4/2008,89,78,0
1/5/2008,89,79,0.1
1/6/2008,87,75,3.6
1/7/2008,85,77,0.27
1/8/2008,85,77,2.44
1/9/2008,87,80,0.23
1/10/2008,89,83,0.02
1/11/2008,86,80,0.77
1/12/2008,87,81,1.19
1/13/2008,90,81,0.09
1/14/2008,90,79,0.59
1/15/2008,88,79,0.04
1/16/2008,88,79,1.01
1/17/2008,88,81,0.25
1/18/2008,87,80,0.02
1/19/2008,83,76,2.59
1/20/2008,88,78,2.31
1/21/2008,87,80,1.34
1/22/2008,89,80,0.23
1/23/2008,89,77,0
1/24/2008,87,79,0.85
1/25/2008,84,78,1.3
1/26/2008,89,80,0.14
1/27/2008,89,80, T
1/28/2008,89,83,0.12
1/29/2008,88,78,0.3
1/30/2008,86,77,1.33
1/31/2008,88,79,0.18
2/1/2008,89,81,0.01
2/2/2008,90,81,0.1
2/3/2008,89,81,0.3
2/4/2008,89,80,0.08
2/5/2008,90,79,0.11
2/6/2008,90,79,0.02
2/7/2008,90,79,0.11
2/8/2008,90,80,0.15
2/9/2008,90,80,0.06
2/10/2008,90,81,0.16
2/11/2008,89,83,0
2/12/2008,88,80,0.52
2/13/2008,87,79,0.05
2/14/2008,89,77, T
2/15/2008,88,78,0.15
2/16/2008,89,78,0
2/17/2008,90,78,0
2/18/2008,89,78,0.12
2/19/2008,90,78,0.54
2/20/2008,90,79,0.04
2/21/2008,90,79,0
2/22/2008,90,80,0.03
2/23/2008,87,80,0.56
2/24/2008,89,79,0.13
2/25/2008,90,81,0.2
2/26/2008,89,79,0.24
2/27/2008,89,78,0.49
2/28/2008,89,78,0.13
2/29/2008,86,78,0.6
3/1/2008,85,78,0.02
3/2/2008,87,79,0.3
3/3/2008,85,77,2.89
3/4/2008,84,76,1.8
3/5/2008,87,77,0.21
3/6/2008,88,76,0.2
3/7/2008,88,80,0.05
3/8/2008,89,77,0.02
3/9/2008,89,78,0.06
3/10/2008,88,78,0.12
3/11/2008,89,78,0
3/12/2008,89,76,0.02
3/13/2008,89,78,0
3/14/2008,91,78,0.02
3/15/2008,91,81,0.16
3/16/2008,88,78,0.09
3/17/2008,89,77,0.37
3/18/2008,91,84,0.02
3/19/2008,89,78,0.32
3/20/2008,90,80,0
3/21/2008,86,76,0.12
3/22/2008,89,78,0.17
3/23/2008,88,80,0.11
3/24/2008,88,78,1.9
3/25/2008,89,78,0
3/26/2008,90,79,0.01
3/27/2008,90,78,0
3/28/2008,90,80,0.17
3/29/2008,87,80,0.37
3/30/2008,90,79,0.52
3/31/2008,89,80,0.04
4/1/2008,87,79,0.45
4/2/2008,90,81,0
4/3/2008,90,79,0
4/4/2008,89,77,0.85
4/5/2008,89,80,0.21
4/6/2008,89,79,0.01
4/7/2008,89,80,0.02
4/8/2008,87,78,0.24
4/9/2008,88,77,0
4/10/2008,86,77,0.12
4/11/2008,89,77, T
4/12/2008,87,77,0
4/13/2008,87,78,0.62
4/14/2008,88,77,0.1
4/15/2008,88,78,1.18
4/16/2008,89,77,1.49
4/17/2008,87,76,5.19
4/18/2008,89,76,0.05
4/19/2008,90,80, T
4/20/2008,89,82,0
4/21/2008,85,79,0.38
4/22/2008,89,82,0.05
4/23/2008,90,79,0.36
4/24/2008,89,83, T
4/25/2008,89,83,0
4/26/2008,89,80,0.08
4/27/2008,84,76,1.16
4/28/2008,87,76,0.29
4/29/2008,86,75,0.03
4/30/2008,89,74,0.01
5/1/2008,89,78,0.02
5/2/2008,88,78,0.19
5/3/2008,89,82,0.04
5/4/2008,89,82,0.11
5/5/2008,89,81,0.14
5/6/2008,88,78,0.06
5/7/2008,90,78,0.01
5/8/2008,89,78,0.96
5/9/2008,89,77,0.2
5/10/2008,89,78,0.02
5/11/2008,88,71,0.02
5/12/2008,85,77,3.78
5/13/2008,88,80,0.05
5/14/2008,89,78,0
5/15/2008,90,78,0
5/16/2008,90,77,0
5/17/2008,90,79,0.09
5/18/2008,86,77,2.39
5/19/2008,85,76,3.39
5/20/2008,87,78,0.21
5/21/2008,84,78,1
5/22/2008,89,77,0
5/23/2008,88,75,0
5/24/2008,87,76,0
5/25/2008,86,77,0.56
5/26/2008,86,78,0.65
5/27/2008,88,79,0.15
5/28/2008,88,76,0.77
5/29/2008,84,76,0.3
5/30/2008,85,78,0.17
5/31/2008,82,75,4.55
6/1/2008,87,75,0.11
6/2/2008,86,75,0.18
6/3/2008,87,78,0
6/4/2008,87,79,0.06
6/5/2008,85,76,1.22
6/6/2008,87,79,0.11
6/7/2008,85,74,1.47
6/8/2008,86,75,0
6/9/2008,86,80,0.26
6/10/2008,85,79,0.01
6/11/2008,85,77,0.47
6/12/2008,86,79,0.18
6/13/2008,87,80,0.22
6/14/2008,82,76,3.76
6/15/2008,86,79,0.11
6/16/2008,85,80,0.01
6/17/2008,82,77,0.17
6/18/2008,83,75,0.96
6/19/2008,85,75,0.05
6/20/2008,84,75,0.03
6/21/2008,85,76,1.31
6/22/2008,84,78,0
6/23/2008,85,79,0.2
6/24/2008,82,76,0.83
6/25/2008,83,79,0
6/26/2008,85,80, T
6/27/2008,83,76,0.28
6/28/2008,87,76,0
6/29/2008,87,74,0
6/30/2008,85,73,0
7/1/2008,86,79, T
7/2/2008,84,78,0.61
7/3/2008,86,78,0.03
7/4/2008,86,79,0.09
7/5/2008,82,78,0.23
7/6/2008,86,75,0.07
7/7/2008,85,76,0.01
7/8/2008,86,75,0
7/9/2008,84,77,0.51
7/10/2008,80,76,0.25
7/11/2008,82,76,0.01
7/12/2008,81,77,0.01
7/13/2008,83,77,0.17
7/14/2008,82,76,1.78
7/15/2008,80,77,0.5
7/16/2008,82,77,0.07
7/17/2008,83,78, T
7/18/2008,81,77,0.02
7/19/2008,82,79,0.01
7/20/2008,82,77,0.09
7/21/2008,83,79, T
7/22/2008,83,78,0
7/23/2008,84,79,0
7/24/2008,83,78, T
7/25/2008,84,74,0
7/26/2008,85,78,0
7/27/2008,85,76,0
7/28/2008,86,79,0
7/29/2008,87,80,0
7/30/2008,85,80, T
7/31/2008,86,80,0
8/1/2008,87,80, T
8/2/2008,86,80, T
8/3/2008,87,80,0.05
8/4/2008,86,80,0
8/5/2008,87,80,0
8/6/2008,87,79, T
8/7/2008,87,80,0
8/8/2008,83,76,0.96
8/9/2008,85,78,0.4
8/10/2008,83,78,0
8/11/2008,84,77,0.04
8/12/2008,85,76,0.24
8/13/2008,86,79,0.03
8/14/2008,86,80,0
8/15/2008,86,78,0.19
8/16/2008,85,78, T
8/17/2008,86,78,0
8/18/2008,85,79,0.12
8/19/2008,85,78,0.72
8/20/2008,83,79,0
8/21/2008,85,79,0
8/22/2008,84,76,0.04
8/23/2008,84,75,0.13
8/24/2008,85,79,0
8/25/2008,85,79,0.05
8/26/2008,85,79,0
8/27/2008,85,79,0
8/28/2008,85,78,0
8/29/2008,85,79,0
8/30/2008,86,79, T
8/31/2008,83,76,0.62
9/1/2008,84,76,0.22
9/2/2008,85,75,1.14
9/3/2008,81,75,0.73
9/4/2008,86,78,0.04
9/5/2008,84,78,0
9/6/2008,84,78, T
9/7/2008,85,79,0.01
9/8/2008,85,78,0.02
9/9/2008,85,79,0.01
9/10/2008,86,78, T
9/11/2008,86,79,0
9/12/2008,86,79, T
9/13/2008,86,78,0.05
9/14/2008,88,79, T
9/15/2008,83,76,0.14
9/16/2008,85,76,1.45
9/17/2008,86,77, T
9/18/2008,85,79,0
9/19/2008,84,78,0.02
9/20/2008,84,76, T
9/21/2008,85,76,0.01
9/22/2008,85,79,0
9/23/2008,85,79,0
9/24/2008,85,79,0.15
9/25/2008,83,78, T
9/26/2008,84,79,0
9/27/2008,86,78,0.46
9/28/2008,86,78,0.07
9/29/2008,86,78,1.61
9/30/2008,85,75,0
10/1/2008,86,81,0.01
10/2/2008,84,79,0.14
10/3/2008,86,75,0.36
10/4/2008,87,77,0.21
10/5/2008,85,75,0.88
10/6/2008,86,78,0
10/7/2008,85,78,0.06
10/8/2008,86,79,0
10/9/2008,85,80,0
10/10/2008,85,78,0.23
10/11/2008,87,81,0
10/12/2008,86,80, T
10/13/2008,86,80, T
10/14/2008,87,80,0.11
10/15/2008,88,82, T
10/16/2008,87,80,0.01
10/17/2008,87,80,0.03
10/18/2008,88,80, T
10/19/2008,88,80,0
10/20/2008,88,80,0
10/21/2008,88,76,0
10/22/2008,88,80,0
10/23/2008,88,78,0.01
10/24/2008,86,78,0.38
10/25/2008,88,80,0.09
10/26/2008,87,81,0.01
10/27/2008,88,81,0
10/28/2008,88,79,0.01
10/29/2008,87,78,0.49
10/30/2008,85,77,0.2
10/31/2008,87,76,0
11/1/2008,87,80,0.05
11/2/2008,88,80,0.15
11/3/2008,88,78,0.12
11/4/2008,88,77,0
11/5/2008,87,78,0.28
11/6/2008,90,77,0.49
11/7/2008,89,79,0.22
11/8/2008,85,77,2.43
11/9/2008,89,78,0.02
11/10/2008,89,78,0
11/11/2008,89,78,1.01
11/12/2008,87,75,0.41
11/13/2008,89,80, T
11/14/2008,88,79,0.61
11/15/2008,87,77,0.2
11/16/2008,88,79,0.03
11/17/2008,89,79,0
11/18/2008,89,79, T
11/19/2008,89,77,0.92
11/20/2008,89,77,0.49
11/21/2008,85,76,0.25
11/22/2008,88,78,0.62
11/23/2008,87,79,0.04
11/24/2008,84,78,0.88
11/25/2008,89,79,0.13
11/26/2008,90,80,0.21
11/27/2008,90,79,0.83
11/28/2008,89,79,1.27
11/29/2008,88,79, T
11/30/2008,89,80,0.21
12/1/2008,90,81,0.11
12/2/2008,89,82,0.11
12/3/2008,89,79,1.16
12/4/2008,88,80,0.87
12/5/2008,88,77,1.69
12/6/2008,83,77,2.47
12/7/2008,82,76,3.77
12/8/2008,86,75,3.59
12/9/2008,89,80,0
12/10/2008,89,78,0
12/11/2008,90,81,0.51
12/12/2008,89,81,0.72
12/13/2008,87,78,1.51
12/14/2008,91,81,0
12/15/2008,90,79,0
12/16/2008,90,79,0
12/17/2008,89,79,0.05
12/18/2008,91,81,0
12/19/2008,90,79,0
12/20/2008,92,81,0.05
12/21/2008,91,82,0
12/22/2008,91,80,0.23
12/23/2008,91,81, T
12/24/2008,93,80,0.02
12/25/2008,90,79, T
12/26/2008,91,81,0.08
12/27/2008,92,79,0.61
12/28/2008,91,79,0.34
12/29/2008,91,83,0.06
12/30/2008,90,80,0.52
12/31/2008,92,82,0.04
1/1/2009,90,80,0.05
1/2/2009,91,81,0.03
1/3/2009,91,79,1.09
1/4/2009,87,78,0.84
1/5/2009,87,80,0.17
1/6/2009,92,82,0.02
1/7/2009,91,81,0
1/8/2009,90,81,0.26
1/9/2009,90,84,0.04
1/10/2009,90,86,0.02
1/11/2009,89,82,0.5
1/12/2009,88,82,0.43
1/13/2009,90,80,0.58
1/14/2009,89,81,0.76
1/15/2009,92,81, T
1/16/2009,90,80,0.67
1/17/2009,90,81,0.28
1/18/2009,88,80,0.74
1/19/2009,90,79,1.08
1/20/2009,88,82,0.05
1/21/2009,90,82,0.09
1/22/2009,87,80,0.55
1/23/2009,89,79,0.32
1/24/2009,88,79,0.27
1/25/2009,91,80,0.16
1/26/2009,88,79,0.51
1/27/2009,89,80,0.08
1/28/2009,90,79,0.09
1/29/2009,89,78,0.91
1/30/2009,89,78,0.36
1/31/2009,91,77,0.39
2/1/2009,90,78,0.27
2/2/2009,91,80,0.59
2/3/2009,89,80, T
2/4/2009,91,80,0.03
2/5/2009,92,80,0.04
2/6/2009,93,82,0.04
2/7/2009,92,83,0.22
2/8/2009,88,80,1.64
2/9/2009,89,81,0.05
2/10/2009,91,79,0
2/11/2009,91,79,0.11
2/12/2009,88,79,0.16
2/13/2009,91,79,0.5
2/14/2009,91,77,0.04
2/15/2009,91,81,0.03
2/16/2009,92,82,0
2/17/2009,92,80,0.06
2/18/2009,92,83,0
2/19/2009,92,79,0.91
2/20/2009,91,79,0.02
2/21/2009,91,78,1.49
2/22/2009,88,78,0.24
2/23/2009,91,78,0.41
2/24/2009,91,80,0.18
2/25/2009,91,79,0.46
2/26/2009,91,82,0
2/27/2009,91,82,0.02
2/28/2009,91,83,0.11
3/1/2009,91,80,0.1
3/2/2009,92,83,0.01
3/3/2009,92,82,0.23
3/4/2009,91,79, T
3/5/2009,90,80,0.05
3/6/2009,91,80,0.02
3/7/2009,92,80,0.02
3/8/2009,89,77,0.22
3/9/2009,91,80, T
3/10/2009,90,80,0.18
3/11/2009,89,79,0.79
3/12/2009,90,78,0.78
3/13/2009,90,80,0.44
3/14/2009,90,80,0.12
3/15/2009,89,80,0.07
3/16/2009,90,79,0.77
3/17/2009,92,80,0
3/18/2009,91,80,0
3/19/2009,91,82,0
3/20/2009,91,78,1.36
3/21/2009,90,79,0.52
3/22/2009,91,81,0.01
3/23/2009,91,80,0.01
3/24/2009,91,81,0.01
3/25/2009,91,83,0.02
3/26/2009,91,80,0.04
3/27/2009,90,80,0.06
3/28/2009,91,80,0.26
3/29/2009,89,80,0.17
3/30/2009,87,79,0.64
3/31/2009,85,79,3.09
4/1/2009,85,80,0.56
4/2/2009,87,79,1.99
4/3/2009,87,79,0.5
4/4/2009,90,80,1.85
4/5/2009,88,79,0.05
4/6/2009,91,80,0.07
4/7/2009,90,81,0.1
4/8/2009,90,79,1.82
4/9/2009,90,81,0.06
4/10/2009,87,79,0.82
4/11/2009,89,82,0.16
4/12/2009,90,84,0.02
4/13/2009,90,82,0
4/14/2009,89,80,0.01
4/15/2009,90,81,0.38
4/16/2009,88,80,0.03
4/17/2009,91,81,0
4/18/2009,92,82,0.02
4/19/2009,91,82,0.15
4/20/2009,91,83,0.04
4/21/2009,91,84,0
4/22/2009,92,85,0.01
4/23/2009,92,85,0
4/24/2009,92,83,0
4/25/2009,90,81,0
4/26/2009,89,81,0.07
4/27/2009,91,81,0.15
4/28/2009,89,80,0.42
4/29/2009,87,81, T
4/30/2009,88,80,0
5/1/2009,87,78, T
5/2/2009,88,77,0
5/3/2009,91,78,0
5/4/2009,87,80,0.59
5/5/2009,87,79,0
5/6/2009,88,79,0.14
5/7/2009,87,76,0.68
5/8/2009,87,76,0.68
5/9/2009,84,78,1.1
5/10/2009,82,75,4.05
5/11/2009,86,77,0.48
5/12/2009,91,77,0.51
5/13/2009,86,78,0.48
5/14/2009,83,77,2.39
5/15/2009,85,78,0.64
5/16/2009,84,78,0.28
5/17/2009,82,75,4.21
5/18/2009,87,77,0.03
5/19/2009,86,78,0.42
5/20/2009,85,76,1.18
5/21/2009,83,79,0.49
5/22/2009,84,78,0.14
5/23/2009,85,79,0.39
5/24/2009,86,76,0
5/25/2009,86,81,0.04
5/26/2009,88,76,0.01
5/27/2009,87,77,0.08
5/28/2009,87,82,0
5/29/2009,87,82,0
5/30/2009,87,78,0.15
5/31/2009,87,77,0.01
6/1/2009,86,77,0.18
6/2/2009,85,78,0.14
6/3/2009,86,78,0.21
6/4/2009,80,76,0.67
6/5/2009,84,76,0.03
6/6/2009,83,76,0.17
6/7/2009,83,79,0
6/8/2009,82,78,0
6/9/2009,83,75,0.01
6/10/2009,82,75,0.05
6/11/2009,84,78,0
6/12/2009,84,78,0
6/13/2009,84,79,0
6/14/2009,86,75,0
6/15/2009,85,80, T
6/16/2009,85,80,0
6/17/2009,87,77, T
6/18/2009,86,75,0.09
6/19/2009,83,79,0.03
6/20/2009,82,76,1.03
6/21/2009,87,79,0.12
6/22/2009,86,78,0.15
6/23/2009,82,77,0.08
6/24/2009,81,77,0.25
6/25/2009,84,79,0.11
6/26/2009,84,78,0.32
6/27/2009,87,80,0.01
6/28/2009,87,81, T
6/29/2009,87,81, T
6/30/2009,88,78, T
7/1/2009,82,76,0.46
7/2/2009,87,77,0.29
7/3/2009,83,77,2.43
7/4/2009,86,79,0.02
7/5/2009,88,81,0
7/6/2009,88,81,0
7/7/2009,85,81,0
7/8/2009,84,78,0.07
7/9/2009,85,77,0.17
7/10/2009,83,79,0.16
7/11/2009,85,79,0.18
7/12/2009,86,77,0.04
7/13/2009,85,70,0
7/14/2009,86,81,0
7/15/2009,85,79,0.18
7/16/2009,82,77,0.95
7/17/2009,85,78,0.07
7/18/2009,85,80,0
7/19/2009,85,78,0.01
7/20/2009,85,77,0.12
7/21/2009,83,75,0.14
7/22/2009,79,74,0.24
7/23/2009,80,77,0.02
7/24/2009,84,79,0.14
7/25/2009,85,76,0.09
7/26/2009,85,74,0.3
7/27/2009,79,74,2.92
7/28/2009,80,76,0.1
7/29/2009,81,76,0.12
7/30/2009,82,77,0.54
7/31/2009,82,75,0.2
8/1/2009,83,77,0
8/2/2009,83,76,0.01
8/3/2009,84,75,0.01
8/4/2009,84,76,0
8/5/2009,84,77,0.03
8/6/2009,82,76,1.25
8/7/2009,83,78,0.34
8/8/2009,85,76,0.01
8/9/2009,84,76,0.03
8/10/2009,84,78,0.79
8/11/2009,81,77,0.04
8/12/2009,82,76,0.08
8/13/2009,82,75,0.01
8/14/2009,85,76,0.03
8/15/2009,83,74,1.75
8/16/2009,82,75,1.19
8/17/2009,84,75,0.03
8/18/2009,85,79,0.1
8/19/2009,84,77,0.58
8/20/2009,87,77,0.01
8/21/2009,86,74,0
8/22/2009,86,75, T
8/23/2009,84,77,0.77
8/24/2009,80,72,3.1
8/25/2009,80,73,0.09
8/26/2009,82,76,0
8/27/2009,83,76, T
8/28/2009,83,77, T
8/29/2009,82,78, T
8/30/2009,83,78,0.06
8/31/2009,83,76,0.1
9/1/2009,82,75,0.42
9/2/2009,85,76,0.18
9/3/2009,84,75,1.12
9/4/2009,86,75,0.01
9/5/2009,83,76,0.22
9/6/2009,80,72,2.2
9/7/2009,80,74,0.08
9/8/2009,82,78,0.02
9/9/2009,83,76,0.1
9/10/2009,81,76,0.08
9/11/2009,82,78,0
9/12/2009,85,79, T
9/13/2009,84,79,0.08
9/14/2009,83,77,1.49
9/15/2009,85,79,0.01
9/16/2009,85,79,0.02
9/17/2009,84,78,0.11
9/18/2009,85,78,0
9/19/2009,85,79,0.01
9/20/2009,85,79,0.03
9/21/2009,85,77,0.07
9/22/2009,85,80,0
9/23/2009,85,79,0
9/24/2009,85,79,0
9/25/2009,85,77,0
9/26/2009,84,72,0
9/27/2009,85,69,0
9/28/2009,85,77,0.03
9/29/2009,84,77,0
9/30/2009,87,74,0
10/1/2009,86,72,0.01
10/2/2009,86,72,0
10/3/2009,87,79,0
10/4/2009,86,77,0.08
10/5/2009,88,78, T
10/6/2009,87,80,0
10/7/2009,88,79, T
10/8/2009,86,79,0.02
10/9/2009,85,78,0.04
10/10/2009,86,75, T
10/11/2009,89,80,0
10/12/2009,89,81,0
10/13/2009,88,78,2.35
10/14/2009,84,79,1.94
10/15/2009,84,78,0.36
10/16/2009,84,78,0.01
10/17/2009,84,77,0.05
10/18/2009,84,77,0.21
10/19/2009,85,79,0.02
10/20/2009,86,78,0.01
10/21/2009,84,76,0.24
10/22/2009,85,78, T
10/23/2009,86,78,0.05
10/24/2009,83,78,0.09
10/25/2009,84,78,0
10/26/2009,83,77,0
10/27/2009,82,74,0.04
10/28/2009,83,73,0
10/29/2009,83,73,0
10/30/2009,82,76,0.83
10/31/2009,84,75,1.18
11/1/2009,85,75,0
11/2/2009,84,76,0.06
11/3/2009,86,77, T
11/4/2009,87,78,0.08
11/5/2009,86,79, T
11/6/2009,84,78,0.54
11/7/2009,84,77,3.43
11/8/2009,81,77,2.53
11/9/2009,84,78,1.6
11/10/2009,83,78,0.64
11/11/2009,80,77,2.04
11/12/2009,85,79,0
11/13/2009,86,79,0
11/14/2009,86,78,1.04
11/15/2009,85,79,0
11/16/2009,84,79,0
11/17/2009,86,78,0
11/18/2009,86,78,0.01
11/19/2009,85,78,0
11/20/2009,86,79,0
11/21/2009,87,78,0.06
11/22/2009,85,79,0.04
11/23/2009,84,78,0
11/24/2009,84,73,0
11/25/2009,86,78,0.35
11/26/2009,87,77,1.65
11/27/2009,83,76,1.32
11/28/2009,86,78,0.78
11/29/2009,86,79,0.29
11/30/2009,85,77,0.19
12/1/2009,85,75,0.62
12/2/2009,86,77,0.23
12/3/2009,86,78,0.1
12/4/2009,86,78,0.58
12/5/2009,86,81,0.01
12/6/2009,86,78,0.05
12/7/2009,87,78,0.01
12/8/2009,84,77,0.57
12/9/2009,86,76,0.68
12/10/2009,81,73,6.6
12/11/2009,83,76,2.26
12/12/2009,88,76,0
12/13/2009,86,77,0
12/14/2009,86,80,0
12/15/2009,88,76,0
12/16/2009,89,78,0
12/17/2009,86,77,0.13
12/18/2009,83,78,0
12/19/2009,83,76,0
12/20/2009,86,72,0
12/21/2009,85,78,0
12/22/2009,87,75,0
12/23/2009,86,80,0
12/24/2009,88,79,0.01
12/25/2009,87,79,0.15
12/26/2009,83,76,4.06
12/27/2009,85,76,5.36
12/28/2009,82,76,2.76
12/29/2009,81,77,1.07
12/30/2009,87,78,0.81
12/31/2009,91,79,1.34
1/1/2010,89,79,0.43
1/2/2010,91,78,1.51
1/3/2010,82,78,0.53
1/4/2010,87,78,0.51
1/5/2010,90,79,0.16
1/6/2010,90,77,0.41
1/7/2010,90,83,0.2
1/8/2010,90,82,0.07
1/9/2010,89,79, T
1/10/2010,90,79,0.4
1/11/2010,90,80,0.06
1/12/2010,92,83,0.16
1/13/2010,93,80,0.2
1/14/2010,90,79,1.29
1/15/2010,89,80,0.39
1/16/2010,92,79,0.18
1/17/2010,91,82,0
1/18/2010,91,81,0.1
1/19/2010,92,82,0.06
1/20/2010,91,82,0.04
1/21/2010,91,83,0.38
1/22/2010,91,81,0.37
1/23/2010,90,82,0.32
1/24/2010,86,78,6.91
1/25/2010,85,79,2.19
1/26/2010,87,81,1.28
1/27/2010,88,82,5.5
1/28/2010,90,82,0.07
1/29/2010,90,82, T
1/30/2010,89,81,0.13
1/31/2010,87,80,4.46
2/1/2010,90,82,0
2/2/2010,87,79,1.84
2/3/2010,89,79,0.08
2/4/2010,87,82,0.05
2/5/2010,87,79, T
2/6/2010,87,81,0.02
2/7/2010,88,81,0.09
2/8/2010,89,79,0
2/9/2010,88,78,0.98
2/10/2010,88,79,0.2
2/11/2010,86,80,0.01
2/12/2010,84,79,3.12
2/13/2010,87,79,2.8
2/14/2010,89,83,0.04
2/15/2010,87,77,2.86
2/16/2010,87,77,0.02
2/17/2010,88,82,0.18
2/18/2010,90,81,0.06
2/19/2010,89,82,0.07
2/20/2010,89,82,0.09
2/21/2010,89,78,0.76
2/22/2010,89,76,2.13
2/23/2010,88,80,0.22
2/24/2010,89,80,0.15
2/25/2010,87,82,0.02
2/26/2010,88,79,0.04
2/27/2010,89,79,0
2/28/2010,89,78, T
3/1/2010,89,80,0.22
3/2/2010,89,81, T
3/3/2010,91,84,0.03
3/4/2010,92,82,0.07
3/5/2010,89,81,0.02
3/6/2010,89,79,0.04
3/7/2010,88,80,0.12
3/8/2010,89,79,0.05
3/9/2010,88,79,0.17
3/10/2010,89,81,0.23
3/11/2010,89,82,0.26
3/12/2010,90,82,0.01
3/13/2010,90,83,0.01
3/14/2010,92,83,0
3/15/2010,92,83, T
3/16/2010,91,80,0
3/17/2010,90,79,0
3/18/2010,90,83,0.04
3/19/2010,92,84,0
3/20/2010,91,79, T
3/21/2010,92,80,0.04
3/22/2010,92,81,0
3/23/2010,89,79,0.02
3/24/2010,92,80,0.02
3/25/2010,92,84,0
3/26/2010,91,82,0.03
3/27/2010,89,80,0.69
3/28/2010,91,79,2.63
3/29/2010,90,81,0
3/30/2010,90,81,0.29
3/31/2010,91,79,0
4/1/2010,89,78,0
4/2/2010,92,78,0.08
4/3/2010,89,81,0.25
4/4/2010,89,83,0.01
4/5/2010,89,83,0.03
4/6/2010,89,81,0.08
4/7/2010,89,80,0.44
4/8/2010,84,77,0.66
4/9/2010,89,79,0.01
4/10/2010,88,78,0.03
4/11/2010,88,79,0.01
4/12/2010,88,80,0.04
4/13/2010,84,74,3.3
4/14/2010,87,75,0.27
4/15/2010,87,81,0.01
4/16/2010,87,77,0.28
4/17/2010,85,78,1.15
4/18/2010,86,78,0.31
4/19/2010,88,76,0
4/20/2010,88,78,0
4/21/2010,88,79,0.41
4/22/2010,87,77,0.1
4/23/2010,84,77,0.48
4/24/2010,88,77,0
4/25/2010,87,77,0.13
4/26/2010,87,79,0.51
4/27/2010,88,78,0
4/28/2010,88,77,0.39
4/29/2010,87,76,1.35
4/30/2010,88,76,0
5/1/2010,88,78,0
5/2/2010,87,75,0.02
5/3/2010,87,78,0.22
5/4/2010,86,77,1.29
5/5/2010,87,82, T
5/6/2010,87,79,0.85
5/7/2010,85,76,1.65
5/8/2010,87,77,0.09
5/9/2010,87,77,0.37
5/10/2010,87,78,0.03
5/11/2010,85,78,0.64
5/12/2010,86,76,0
5/13/2010,86,78, T
5/14/2010,87,82, T
5/15/2010,88,77,0
5/16/2010,89,78,0
5/17/2010,88,77,0.15
5/18/2010,87,81,0.01
5/19/2010,87,82,0.02
5/20/2010,87,82,0
5/21/2010,86,79,0.1
5/22/2010,88,80,0.21
5/23/2010,87,77,0.18
5/24/2010,87,78,0.09
5/25/2010,87,79,0.05
5/26/2010,87,77,0
5/27/2010,87,79,0.13
5/28/2010,87,78,0.15
5/29/2010,86,79,0.13
5/30/2010,87,83, T
5/31/2010,85,78,0.23
6/1/2010,87,76,0.29
6/2/2010,86,78,0.21
6/3/2010,87,76,0.21
6/4/2010,86,77,0.12
6/5/2010,84,76,0.56
6/6/2010,84,78,0.09
6/7/2010,84,77,0.14
6/8/2010,86,79,0.03
6/9/2010,86,77,0.42
6/10/2010,82,76,0.66
6/11/2010,85,80,0
6/12/2010,83,78,0.28
6/13/2010,85,76,0.08
6/14/2010,85,76,0.12
6/15/2010,87,77,0.19
6/16/2010,84,76,0.62
6/17/2010,83,78,0.18
6/18/2010,86,79,0.03
6/19/2010,85,77,0.08
6/20/2010,85,76,0.19
6/21/2010,85,79,0.02
6/22/2010,86,78,0.05
6/23/2010,84,78,0.26
6/24/2010,86,76,0.03
6/25/2010,86,80,0.01
6/26/2010,87,79,0.05
6/27/2010,86,82,0
6/28/2010,87,78,0.13
6/29/2010,86,78,0
6/30/2010,86,76,0
7/1/2010,85,76,0
7/2/2010,80,75,0.56
7/3/2010,82,77, T
7/4/2010,84,78,0.03
7/5/2010,87,76,0.11
7/6/2010,87,75,0
7/7/2010,86,79,0.19
7/8/2010,86,80,0.06
7/9/2010,86,80,0.01
7/10/2010,85,76,1.21
7/11/2010,85,77,0.56
7/12/2010,86,75,0.69
7/13/2010,86,76,0.21
7/14/2010,83,76,0.98
7/15/2010,84,75,0
7/16/2010,86,79,0.15
7/17/2010,85,77,0.02
7/18/2010,85,79,0.13
7/19/2010,84,77,0.43
7/20/2010,85,79, T
7/21/2010,82,77,0.1
7/22/2010,84,76,0.16
7/23/2010,86,81,0
7/24/2010,86,80,0.07
7/25/2010,86,80,0.01
7/26/2010,85,78,0.1
7/27/2010,85,77,0.24
7/28/2010,83,78,0.12
7/29/2010,85,80,0.01
7/30/2010,84,78,0.33
7/31/2010,83,73,1.82
8/1/2010,80,70,0.08
8/2/2010,82,68,0
8/3/2010,83,71, T
8/4/2010,85,80,0
8/5/2010,85,79,0.02
8/6/2010,86,80,0
8/7/2010,83,78,0.12
8/8/2010,85,77,0.11
8/9/2010,86,78,0.01
8/10/2010,85,76,1.24
8/11/2010,85,74,0
8/12/2010,80,76,0.07
8/13/2010,81,75,0.12
8/14/2010,83,77,0.09
8/15/2010,80,74,0.41
8/16/2010,85,78,0.03
8/17/2010,84,76,0.17
8/18/2010,85,79, T
8/19/2010,85,78,0
8/20/2010,84,75,0.8
8/21/2010,85,80,0
8/22/2010,85,80,0
8/23/2010,85,78,0
8/24/2010,85,76,0.45
8/25/2010,85,80,0.01
8/26/2010,86,79,0
8/27/2010,85,78,0.14
8/28/2010,86,75,0.45
8/29/2010,85,79,0
8/30/2010,86,75,0
8/31/2010,87,74,0
9/1/2010,85,74, T
9/2/2010,86,80, T
9/3/2010,86,79, T
9/4/2010,87,80, T
9/5/2010,84,75,0.14
9/6/2010,86,78,0.07
9/7/2010,86,79,0.04
9/8/2010,85,76,0.33
9/9/2010,83,75,0.63
9/10/2010,82,75,0.95
9/11/2010,83,79,0.04
9/12/2010,84,77,0.05
9/13/2010,82,73,1.45
9/14/2010,84,75,3.14
9/15/2010,82,76,0.32
9/16/2010,84,74,0.51
9/17/2010,85,78,0.14
9/18/2010,85,75,0.4
9/19/2010,87,74,0.46
9/20/2010,86,78,0.03
9/21/2010,86,79,0.01
9/22/2010,87,77,0.11
9/23/2010,87,80,0.01
9/24/2010,86,75,0.21
9/25/2010,87,77,0.1
9/26/2010,86,77,0.06
9/27/2010,86,77, T
9/28/2010,87,77,0.39
9/29/2010,85,75,0.03
9/30/2010,85,75,0.06
10/1/2010,86,80,0
10/2/2010,86,78,0.01
10/3/2010,83,74,3.38
10/4/2010,87,79,0
10/5/2010,88,77,0
10/6/2010,87,74,0
10/7/2010,85,73,3.1
10/8/2010,86,74,0.12
10/9/2010,87,79,0
10/10/2010,86,75,0.37
10/11/2010,87,77,0
10/12/2010,86,77,0
10/13/2010,87,80,0.01
10/14/2010,83,78,0.36
10/15/2010,86,78,0.01
10/16/2010,87,77,0.08
10/17/2010,87,76,0.56
10/18/2010,83,75,0.26
10/19/2010,86,79,0.1
10/20/2010,86,76,0.33
10/21/2010,87,76,0.2
10/22/2010,87,81,0.04
10/23/2010,87,77,0.07
10/24/2010,86,78,0.03
10/25/2010,84,77,0.11
10/26/2010,87,76,0.29
10/27/2010,88,76,1.67
10/28/2010,85,77,0.75
10/29/2010,85,78,0.1
10/30/2010,86,80,0.04
10/31/2010,82,75,3.34
11/1/2010,87,77,0.07
11/2/2010,87,76,0.55
11/3/2010,86,80, T
11/4/2010,85,75,0.11
11/5/2010,87,75,0
11/6/2010,87,80,0.01
11/7/2010,87,77,0
11/8/2010,87,77,0
11/9/2010,85,77,0.9
11/10/2010,81,77,0.76
11/11/2010,87,77,0.15
11/12/2010,87,74,0.54
11/13/2010,85,75,0.14
11/14/2010,87,76,0
11/15/2010,87,78,0.01
11/16/2010,87,78,0
11/17/2010,83,76,1.28
11/18/2010,86,76,0.19
11/19/2010,80,75,1.97
11/20/2010,82,73,2.04
11/21/2010,83,75,0.06
11/22/2010,84,74,0.24
11/23/2010,88,74,0.04
11/24/2010,87,74,0
11/25/2010,85,72,0
11/26/2010,87,75,0
11/27/2010,87,78,0.02
11/28/2010,88,77,0.01
11/29/2010,87,78,0.06
11/30/2010,88,76, T
12/1/2010,87,76,1.25
12/2/2010,89,78,0.1
12/3/2010,84,76,0.53
12/4/2010,87,75,0.39
12/5/2010,88,78,0.26
12/6/2010,89,79,0.56
12/7/2010,88,80,0.22
12/8/2010,87,77,0.86
12/9/2010,87,77,0.14
12/10/2010,87,78,0.01
12/11/2010,88,77,0.46
12/12/2010,86,76,0.39
12/13/2010,87,80,0.12
12/14/2010,89,78,0.08
12/15/2010,88,76,0.5
12/16/2010,86,76,0.05
12/17/2010,88,75,0.35
12/18/2010,83,74,3
12/19/2010,81,76,0.54
12/20/2010,88,76,0.01
12/21/2010,88,74,0
12/22/2010,89,77,0
12/23/2010,86,76,0.07
12/24/2010,88,81, T
12/25/2010,89,81,0.02
12/26/2010,84,77,0.25
12/27/2010,86,76,1.1
12/28/2010,82,74,0.58
12/29/2010,87,74,0.01
12/30/2010,87,75,0.48
12/31/2010,87,77,0.01
1/1/2011,87,76,0.72
1/2/2011,86,75,1.12
1/3/2011,82,75,0.52
1/4/2011,87,75,0.62
1/5/2011,86,76,1.21
1/6/2011,82,74,0.28
1/7/2011,86,74,0.02
1/8/2011,88,77,0.08
1/9/2011,87,78,0.58
1/10/2011,86,74,2.25
1/11/2011,88,75, T
1/12/2011,89,74,0.68
1/13/2011,88,75,0.51
1/14/2011,88,77,0.14
1/15/2011,87,77,0.44
1/16/2011,87,77,0.15
1/17/2011,88,76,0.63
1/18/2011,84,75,0.81
1/19/2011,83,76,0.28
1/20/2011,83,77,0.89
1/21/2011,88,77,1.92
1/22/2011,84,76,2.17
1/23/2011,83,77,1.54
1/24/2011,82,76,5.85
1/25/2011,87,75,0.77
1/26/2011,87,75,0.48
1/27/2011,82,77,0.32
1/28/2011,84,79,0.09
1/29/2011,86,78,0
1/30/2011,87,75,0.63
1/31/2011,86,80,0.02
2/1/2011,83,76,2.15
2/2/2011,87,77,0.17
2/3/2011,85,78,0.01
2/4/2011,85,75,0.43
2/5/2011,83,73,0.43
2/6/2011,85,77,0.68
2/7/2011,83,76,0.45
2/8/2011,85,78,0.19
2/9/2011,82,75,0.22
2/10/2011,83,75,0.12
2/11/2011,85,75,0.78
2/12/2011,85,75,0.59
2/13/2011,80,75,3.89
2/14/2011,85,74,0.37
2/15/2011,86,74,1.14
2/16/2011,84,73,0.05
2/17/2011,80,74,0.6
2/18/2011,86,74,0.85
2/19/2011,86,74, T
2/20/2011,86,74,0.01
2/21/2011,86,75,0.04
2/22/2011,86,77,0.06
2/23/2011,85,76,0.11
2/24/2011,85,75, T
2/25/2011,87,74,0
2/26/2011,87,74,0
2/27/2011,88,80,0.05
2/28/2011,89,81,0
3/1/2011,88,77,0.03
3/2/2011,87,75,0.32
3/3/2011,81,74,0.58
3/4/2011,88,70,0
3/5/2011,89,75, T
3/6/2011,85,75,0.45
3/7/2011,87,75,0
3/8/2011,86,75,0
3/9/2011,88,76,0.49
3/10/2011,87,77,0.61
3/11/2011,88,82,0.01
3/12/2011,87,81,0
3/13/2011,87,77,0.06
3/14/2011,87,80,0.1
3/15/2011,88,78,0.29
3/16/2011,87,80,0.05
3/17/2011,87,80,0.11
3/18/2011,87,80,0.01
3/19/2011,86,76,0
3/20/2011,86,76,0.08
3/21/2011,81,76,0.18
3/22/2011,87,76,0.26
3/23/2011,88,77,0.13
3/24/2011,88,76,0
3/25/2011,88,77,0.02
3/26/2011,88,76,0.08
3/27/2011,87,75,0.04
3/28/2011,88,74,0
3/29/2011,88,77,0.13
3/30/2011,88,76,0.31
3/31/2011,86,75,1.43
4/1/2011,85,74,1.32
4/2/2011,87,73,0.4
4/3/2011,88,75,0.01
4/4/2011,88,79,0.02
4/5/2011,87,81, T
4/6/2011,88,79,0
4/7/2011,89,77, T
4/8/2011,87,77,0.02
4/9/2011,89,79,0.02
4/10/2011,88,82,0.06
4/11/2011,88,81, T
4/12/2011,88,78,0
4/13/2011,86,74,0.02
4/14/2011,90,76,0.01
4/15/2011,88,76, T
4/16/2011,89,76,0
4/17/2011,88,75,0
4/18/2011,85,75,0.07
4/19/2011,83,75,0.08
4/20/2011,88,75,0.3
4/21/2011,86,75,0.05
4/22/2011,86,76,0.28
4/23/2011,86,80,0.39
4/24/2011,87,76,0
4/25/2011,87,80,0.02
4/26/2011,88,79,0.1
4/27/2011,89,78,0.05
4/28/2011,88,77,0.76
4/29/2011,88,78,0.03
4/30/2011,87,82, T
5/1/2011,87,78,0.2
5/2/2011,85,76,0.09
5/3/2011,87,74,0
5/4/2011,87,77,0
5/5/2011,87,76,0
5/6/2011,87,76,0
5/7/2011,84,75,0.02
5/8/2011,83,75,0.83
5/9/2011,84,74,0.14
5/10/2011,85,76,0.01
5/11/2011,85,76,0.07
5/12/2011,85,72,0
5/13/2011,85,74,0.54
5/14/2011,87,75,0.3
5/15/2011,87,80,0
5/16/2011,86,79,0.02
5/17/2011,86,78,0.59
5/18/2011,86,76,0.04
5/19/2011,86,74,0
5/20/2011,88,74,0
5/21/2011,85,73,0
5/22/2011,87,74, T
5/23/2011,88,74,0
5/24/2011,86,78,0.09
5/25/2011,87,80,0.01
5/26/2011,87,80,0.04
5/27/2011,87,82,0.03
5/28/2011,87,80,0.17
5/29/2011,86,77,0.46
5/30/2011,86,81,0.04
5/31/2011,87,76, T
6/1/2011,87,74,0.01
6/2/2011,86,75,0.41
6/3/2011,82,75,2.44
6/4/2011,83,75,1.52
6/5/2011,86,75,0.14
6/6/2011,84,74,0.02
6/7/2011,86,79,0.01
6/8/2011,87,80, T
6/9/2011,83,74,0.23
6/10/2011,84,74,0.28
6/11/2011,83,73,0.09
6/12/2011,86,71,0.03
6/13/2011,87,75,0.02
6/14/2011,87,81,0
6/15/2011,87,80, T
6/16/2011,85,77,0
6/17/2011,85,77,0.29
6/18/2011,87,80, T
6/19/2011,86,81,0
6/20/2011,85,76,0.9
6/21/2011,86,76,0.32
6/22/2011,86,77,0.09
6/23/2011,86,81,0.01
6/24/2011,86,81,0.02
6/25/2011,86,79,0.09
6/26/2011,87,75, T
6/27/2011,86,79,0
6/28/2011,86,78,0
6/29/2011,86,77,0.06
6/30/2011,85,78,0.03
7/1/2011,87,80,0
7/2/2011,87,80, T
7/3/2011,88,79,0
7/4/2011,86,74,0
7/5/2011,85,76,0.05
7/6/2011,86,80,0.12
7/7/2011,86,80, T
7/8/2011,86,80,0
7/9/2011,83,78, T
7/10/2011,86,79,0
7/11/2011,86,79,0.01
7/12/2011,87,79, T
7/13/2011,85,77,0.18
7/14/2011,85,76,0.17
7/15/2011,86,79,0
7/16/2011,85,79,0
7/17/2011,86,78,0.16
7/18/2011,87,78,0.05
7/19/2011,87,75,0
7/20/2011,85,75,0.07
7/21/2011,87,79, T
7/22/2011,87,78,0
7/23/2011,87,73,0
7/24/2011,87,74,0
7/25/2011,86,75,0
7/26/2011,86,77,0.11
7/27/2011,83,76,0.41
7/28/2011,81,76,0.77
7/29/2011,85,78,0.19
7/30/2011,86,79,0.02
7/31/2011,86,79,0
8/1/2011,86,80,0
8/2/2011,85,72,0.97
8/3/2011,85,71, T
8/4/2011,86,73,0
8/5/2011,85,74,0
8/6/2011,78,73,0.14
8/7/2011,84,75,0.04
8/8/2011,86,77, T
8/9/2011,85,77,0.26
8/10/2011,87,75,0
8/11/2011,85,75,0
8/12/2011,85,74,0
8/13/2011,86,77, T
8/14/2011,86,76,0.06
8/15/2011,85,78,0.03
8/16/2011,87,73,0.01
8/17/2011,87,73,0
8/18/2011,87,74,0
8/19/2011,87,73,0
8/20/2011,87,74,0
8/21/2011,87,78,0.07
8/22/2011,81,76,0.52
8/23/2011,84,74,0.22
8/24/2011,82,76,0.08
8/25/2011,84,76,0.09
8/26/2011,85,77,0.23
8/27/2011,86,78,0.23
8/28/2011,84,76,0.09
8/29/2011,82,77,0.18
8/30/2011,84,76,0.42
8/31/2011,85,77,0.21
9/1/2011,86,78, T
9/2/2011,85,77,0
9/3/2011,86,73,0
9/4/2011,85,71,0
9/5/2011,84,71,0
9/6/2011,86,79,0.03
9/7/2011,86,76,0
9/8/2011,87,73,0
9/9/2011,87,75, T
9/10/2011,86,78,0.22
9/11/2011,85,79,0
9/12/2011,87,79,0
9/13/2011,86,79, T
9/14/2011,86,75,1.23
9/15/2011,85,77,0.16
9/16/2011,85,73,0
9/17/2011,86,76,0
9/18/2011,83,75, T
9/19/2011,86,73,0.08
9/20/2011,87,72,0
9/21/2011,88,75,0
9/22/2011,86,71,0
9/23/2011,87,76, T
9/24/2011,88,74,0
9/25/2011,87,75,0
9/26/2011,88,80,0
9/27/2011,88,80,0.08
9/28/2011,89,77, T
9/29/2011,89,77, T
9/30/2011,84,75,0.12
10/1/2011,89,74,0
10/2/2011,89,76,0.1
10/3/2011,88,78,0
10/4/2011,89,78,0.04
10/5/2011,86,73,0.06
10/6/2011,87,73,0
10/7/2011,88,77,0.04
10/8/2011,88,75,0.12
10/9/2011,89,80,0
10/10/2011,89,77,0.02
10/11/2011,87,78,0.08
10/12/2011,88,76,0.03
10/13/2011,89,77,0
10/14/2011,81,77,0.39
10/15/2011,86,74,0.65
10/16/2011,86,79,0.01
10/17/2011,87,78,0.11
10/18/2011,88,78,0.15
10/19/2011,88,78,0.07
10/20/2011,86,76,0.18
10/21/2011,88,78,0.2
10/22/2011,87,78,1.01
10/23/2011,87,78,0.18
10/24/2011,85,77,1.26
10/25/2011,85,75,1.33
10/26/2011,86,75,1.16
10/27/2011,84,75,1.12
10/28/2011,85,76,1.18
10/29/2011,83,75,1.53
10/30/2011,80,75,1.45
10/31/2011,85,78,0.2
11/1/2011,87,76,0.06
11/2/2011,88,79,0.1
11/3/2011,87,77,0.34
11/4/2011,86,77,0.01
11/5/2011,84,77,0.47
11/6/2011,89,77,0
11/7/2011,87,76,0.62
11/8/2011,87,76,0.37
11/9/2011,80,74,3.47
11/10/2011,85,75,0.08
11/11/2011,81,76,1.21
11/12/2011,84,76,0.31
11/13/2011,88,78,0.02
11/14/2011,87,76,0.01
11/15/2011,88,73,0
11/16/2011,87,72,0
11/17/2011,86,74,0
11/18/2011,89,78, T
11/19/2011,85,76,1.08
11/20/2011,86,75,1.31
11/21/2011,81,75,3.22
11/22/2011,84,79,0.05
11/23/2011,85,78,0.05
11/24/2011,87,76,0.1
11/25/2011,86,74,0.71
11/26/2011,86,76,1.31
11/27/2011,79,74,0.87
11/28/2011,87,78,0.02
11/29/2011,85,78,0.07
11/30/2011,85,78,0.05
12/1/2011,87,76,0.08
12/2/2011,86,74,0.16
12/3/2011,87,75,0.03
12/4/2011,83,74,2.21
12/5/2011,86,74,0.58
12/6/2011,85,74,0.38
12/7/2011,87,73,0.05
12/8/2011,88,76,0
12/9/2011,87,80,0.05
12/10/2011,88,78,0.05
12/11/2011,87,73,1.61
12/12/2011,86,74,0.27
12/13/2011,81,74,0.33
12/14/2011,89,74,0.01
12/15/2011,87,78,0.13
12/16/2011,88,81,0.02
12/17/2011,89,81,0.04
12/18/2011,88,81,0.14
12/19/2011,89,81,0
12/20/2011,89,81, T
12/21/2011,88,79,0.02
12/22/2011,89,81,0
12/23/2011,89,77,0
12/24/2011,87,76,0.4
12/25/2011,87,78,0.11
12/26/2011,82,76,0.58
12/27/2011,81,76,1.66
12/28/2011,86,75,0.75
12/29/2011,87,77,0
12/30/2011,86,75,0.03
12/31/2011,87,75, T
1/1/2012,86,77,1.18
1/2/2012,84,78,0.24
1/3/2012,87,79,0.01
1/4/2012,87,82,0.08
1/5/2012,85,80,0.05
1/6/2012,84,79,0.09
1/7/2012,82,79,0.26
1/8/2012,83,78,0.27
1/9/2012,88,78,0.27
1/10/2012,87,75,0
1/11/2012,85,76,0.01
1/12/2012,85,76,0
1/13/2012,86,76,0
1/14/2012,87,76,0.03
1/15/2012,87,76,0
1/16/2012,88,78,0.02
1/17/2012,87,77,0.07
1/18/2012,83,76,0.8
1/19/2012,81,74,1.25
1/20/2012,89,75,0.14
1/21/2012,88,81,0
1/22/2012,88,82,0
1/23/2012,89,76,0
1/24/2012,88,75,0.18
1/25/2012,85,74,1.75
1/26/2012,88,76,0.71
1/27/2012,85,77,0.62
1/28/2012,86,79,0
1/29/2012,87,77,0.11
1/30/2012,87,79, T
1/31/2012,87,77, T
2/1/2012,85,75,1.56
2/2/2012,85,75,1.15
2/3/2012,85,75,0.86
2/4/2012,87,77,0.16
2/5/2012,83,77,1.14
2/6/2012,84,76,2.49
2/7/2012,84,78,1.09
2/8/2012,87,81,0
2/9/2012,87,81,0
2/10/2012,87,77,0
2/11/2012,87,76,0
2/12/2012,87,80,0
2/13/2012,85,77,0.44
2/14/2012,86,76,0.04
2/15/2012,88,76,0
2/16/2012,88,77,0
2/17/2012,85,77,0.32
2/18/2012,85,76, T
2/19/2012,86,75,0.01
2/20/2012,89,76,0.01
2/21/2012,89,75,0.2
2/22/2012,84,78,0.05
2/23/2012,85,75,2.03
2/24/2012,87,76,0.03
2/25/2012,87,75,0
2/26/2012,86,77, T
2/27/2012,88,77,0.09
2/28/2012,88,82,0.04
2/29/2012,87,81,0.05
3/1/2012,88,77,0.34
3/2/2012,87,79,0.15
3/3/2012,86,76,0.01
3/4/2012,86,76,0.29
3/5/2012,88,77,0.26
3/6/2012,88,73,1.35
3/7/2012,87,73, T
3/8/2012,87,77,1.08
3/9/2012,86,76,0.69
3/10/2012,87,77,0
3/11/2012,88,75,0
3/12/2012,87,77,0.05
3/13/2012,87,79,0.01
3/14/2012,86,78,0.46
3/15/2012,86,77,1.11
3/16/2012,82,75,1.79
3/17/2012,86,75,0.11
3/18/2012,85,78,0.02
3/19/2012,88,80,0.05
3/20/2012,82,76,0.9
3/21/2012,86,77,1.15
3/22/2012,86,76,1.02
3/23/2012,86,75,0.8
3/24/2012,83,76,1.44
3/25/2012,84,76,0.55
3/26/2012,85,78,0.07
3/27/2012,84,77,0.29
3/28/2012,86,76, T
3/29/2012,86,77,0
3/30/2012,87,77, T
3/31/2012,86,74,0.01
4/1/2012,86,74,0.01
4/2/2012,88,77,0.12
4/3/2012,86,76,0.16
4/4/2012,87,76,0.01
4/5/2012,86,75,1.46
4/6/2012,86,76,0.07
4/7/2012,83,77,1.72
4/8/2012,87,75,0.04
4/9/2012,82,75,0.03
4/10/2012,85,75, T
4/11/2012,85,75,0.26
4/12/2012,85,75,0.07
4/13/2012,87,74,0.01
4/14/2012,86,73,0
4/15/2012,85,76,0.39
4/16/2012,86,77,0.12
4/17/2012,86,75, T
4/18/2012,86,76,0.09
4/19/2012,87,76,0
4/20/2012,87,78,0
4/21/2012,87,77,0.02
4/22/2012,86,75,0.66
4/23/2012,88,76,0.01
4/24/2012,88,78,0.01
4/25/2012,88,81,0.06
4/26/2012,87,82,0
4/27/2012,87,81, T
4/28/2012,85,75,0.27
4/29/2012,85,74,0.33
4/30/2012,85,73,2.49
5/1/2012,85,74,0
5/2/2012,87,74,2.32
5/3/2012,86,75,0.12
5/4/2012,87,76,0
5/5/2012,85,77,1.03
5/6/2012,85,75,0.06
5/7/2012,87,76,0.94
5/8/2012,86,76,1.06
5/9/2012,86,79,0.02
5/10/2012,88,78,0.24
5/11/2012,86,81,0
5/12/2012,87,78,0.22
5/13/2012,87,82,0.13
5/14/2012,88,80,0.44
5/15/2012,89,78,0.05
5/16/2012,88,77,0
5/17/2012,85,77,0.18
5/18/2012,86,77,0
5/19/2012,87,78,0.08
5/20/2012,85,76,0.05
5/21/2012,86,76,0.31
5/22/2012,82,76,1.07
5/23/2012,81,76,0.96
5/24/2012,80,75,0.64
5/25/2012,81,76,0.87
5/26/2012,83,73,1.25
5/27/2012,84,73,0
5/28/2012,84,72,0
5/29/2012,86,73,0
5/30/2012,86,74,0.02
5/31/2012,82,75,0.09
6/1/2012,81,75,0.07
6/2/2012,81,77,0.29
6/3/2012,80,76,1.41
6/4/2012,80,74,1
6/5/2012,82,78,0.3
6/6/2012,85,77,0.76
6/7/2012,84,77,0.7
6/8/2012,85,80, T
6/9/2012,85,78,0
6/10/2012,83,77,0.01
6/11/2012,85,76,0.15
6/12/2012,86,74,0.01
6/13/2012,86,76,0.01
6/14/2012,87,76,0
6/15/2012,87,78,0
6/16/2012,85,79,0.22
6/17/2012,85,79,0.37
6/18/2012,83,79,0.16
6/19/2012,85,80,0
6/20/2012,86,80,0.14
6/21/2012,85,80,0
6/22/2012,85,79,0.06
6/23/2012,82,76,0.15
6/24/2012,82,78,0.12
6/25/2012,82,77,0
6/26/2012,83,77, T
6/27/2012,82,78, T
6/28/2012,82,76,0.2
6/29/2012,86,79,0
6/30/2012,84,79,0
7/1/2012,84,78,0
7/2/2012,84,78,0
7/3/2012,85,78,0.05
7/4/2012,82,77,0.18
7/5/2012,84,79,0
7/6/2012,84,77,0.01
7/7/2012,85,76,0.21
7/8/2012,81,77,1.22
7/9/2012,83,78,0.12
7/10/2012,83,77, T
7/11/2012,83,76,0.07
7/12/2012,79,74,1.21
7/13/2012,79,74,0.94
7/14/2012,78,74, T
7/15/2012,81,75,0.01
7/16/2012,80,76,0
7/17/2012,81,77,0.08
7/18/2012,82,77,0.12
7/19/2012,85,79,0.06
7/20/2012,84,79,0
7/21/2012,84,79,0.13
7/22/2012,84,79,0.01
7/23/2012,83,77,0.05
7/24/2012,84,78,0.01
7/25/2012,82,76,0.08
7/26/2012,83,78,0.24
7/27/2012,82,77,1.03
7/28/2012,84,75,0.01
7/29/2012,84,75,0
7/30/2012,84,78,0
7/31/2012,83,78, M
8/1/2012,85,77,0.02
8/2/2012,83,77, T
8/3/2012,85,78,0
8/4/2012,86,73,0
8/5/2012,84,73,0
8/6/2012,85,79,0.08
8/7/2012,84,77,0.51
8/8/2012,85,78, T
8/9/2012,85,76,1.73
8/10/2012,84,75,0.1
8/11/2012,83,79,0
8/12/2012,85,79,0
8/13/2012,84,78,0
8/14/2012,84,77,0.02
8/15/2012,85,70,0
8/16/2012,84,78,0
8/17/2012,85,79,0.05
8/18/2012,84,79,0
8/19/2012,82,78,0.04
8/20/2012,83,76,0
8/21/2012,84,77,0
8/22/2012,83,76,0
8/23/2012,85,78,0
8/24/2012,80,74,0.21
8/25/2012,86,74,0
8/26/2012,85,79,0
8/27/2012,84,78,0.06
8/28/2012,82,76,0.18
8/29/2012,85,77,0.13
8/30/2012,86,78,0.03
8/31/2012,86,77,0.03
9/1/2012,80,75,8.3
9/2/2012,80,76,1.85
9/3/2012,83,78,0
9/4/2012,85,77,0.02
9/5/2012,87,77,0.09
9/6/2012,86,76,0
9/7/2012,84,78,0.07
9/8/2012,87,78,0.1
9/9/2012,87,80,0
9/10/2012,84,78,0.07
9/11/2012,85,79,0.01
9/12/2012,87,77,0.03
9/13/2012,87,76,0.08
9/14/2012,84,75,0.22
9/15/2012,86,80,0.02
9/16/2012,85,76,0.45
9/17/2012,85,79,0
9/18/2012,85,78, T
9/19/2012,87,78, T
9/20/2012,86,80,0
9/21/2012,87,76,0.14
9/22/2012,82,76,0.04
9/23/2012,86,74,0
9/24/2012,87,80,0
9/25/2012,87,80,0.17
9/26/2012,88,76,0.14
9/27/2012,89,81,0.02
9/28/2012,88,79,0.28
9/29/2012,87,75,0.51
9/30/2012,86,75,0.13
10/1/2012,86,74,0.1
10/2/2012,87,78,0
10/3/2012,87,78,0.01
10/4/2012,88,77,0
10/5/2012,86,76, T
10/6/2012,88,80,0.04
10/7/2012,86,78,0.25
10/8/2012,88,77,0.27
10/9/2012,89,79,0.03
10/10/2012,86,77,0.01
10/11/2012,86,79,0
10/12/2012,89,80,0
10/13/2012,85,78,0.38
10/14/2012,88,80,0
10/15/2012,88,81,0
10/16/2012,83,76,1.33
10/17/2012,85,76,0.62
10/18/2012,86,80,0
10/19/2012,86,80,0
10/20/2012,84,75,0.64
10/21/2012,87,79,0.08
10/22/2012,87,80,0
10/23/2012,88,81,0
10/24/2012,87,81,0
10/25/2012,87,79,0.02
10/26/2012,87,76,1.21
10/27/2012,86,75,0
10/28/2012,86,74,0
10/29/2012,87,77, T
10/30/2012,87,81,0
10/31/2012,88,80, M
11/1/2012,86,78,2.05
11/2/2012,88,78,0
11/3/2012,87,80,0.01
11/4/2012,88,80,0.29
11/5/2012,81,75,7.56
11/6/2012,87,76,0.76
11/7/2012,88,78,0.2
11/8/2012,86,77,1.81
11/9/2012,82,77,0.32
11/10/2012,85,76,0.72
11/11/2012,86,78, T
11/12/2012,88,79, T
11/13/2012,88,78,0
11/14/2012,90,79,0.72
11/15/2012,89,76,0.84
11/16/2012,90,76,0.92
11/17/2012,84,77,0.71
11/18/2012,89,81,0.09
11/19/2012,90,81,0.06
11/20/2012,89,81,0.01
11/21/2012,90,76,0
11/22/2012,89,77,0.12
11/23/2012,89,77,0.13
11/24/2012,89,78,0.41
11/25/2012,90,78,0
11/26/2012,90,80,0.19
11/27/2012,89,79,0.03
11/28/2012,90,78, T
11/29/2012,89,79,0.17
11/30/2012,90,78,0.23
12/1/2012,89,79,0.08
12/2/2012,83,76,1.28
12/3/2012,87,77,0.33
12/4/2012,88,77,0.21
12/5/2012,87,77,0.37
12/6/2012,89,78,0.65
12/7/2012,88,77,0.13
12/8/2012,87,80,0.15
12/9/2012,87,76,0.19
12/10/2012,87,76,0.05
12/11/2012,84,77,0.77
12/12/2012,83,78,3.17
12/13/2012,87,77,1.15
12/14/2012,86,79,1.04
12/15/2012,87,80,0.22
12/16/2012,87,79,0
12/17/2012,87,79,0.49
12/18/2012,86,81,0.04
12/19/2012,89,78,0.12
12/20/2012,87,76,0.56
12/21/2012,89,75,0.01
12/22/2012,90,79,0.1
12/23/2012,89,78,0.17
12/24/2012,88,79,0.08
12/25/2012,88,79,0.22
12/26/2012,88,76,1.09
12/27/2012,88,74,1.51
12/28/2012,87,73,0.14
12/29/2012,85,75,3.52
12/30/2012,85,75,0.26
12/31/2012,82,76,0.21
1/1/2013,84,76,0.63
1/2/2013,87,76,0.02
1/3/2013,88,78,0.24
1/4/2013,88,80,0.08
1/5/2013,87,78,0.38
1/6/2013,89,79,0.02
1/7/2013,87,77,0
1/8/2013,88,76,0
1/9/2013,83,77,1.2
1/10/2013,82,76,1.8
1/11/2013,85,76,1.18
1/12/2013,85,77,2.24
1/13/2013,85,78,0.35
1/14/2013,84,78,0.98
1/15/2013,85,78,1.43
1/16/2013,85,80,0.24
1/17/2013,83,78,1.2
1/18/2013,87,78,0
1/19/2013,87,75,0.18
1/20/2013,87,78,0.19
1/21/2013,86,79,0.74
1/22/2013,86,77,0.12
1/23/2013,87,78,0
1/24/2013,86,77,0
1/25/2013,89,78,0
1/26/2013,89,78,0
1/27/2013,87,81,0.78
1/28/2013,82,79,0.2
1/29/2013,82,76,2.28
1/30/2013,87,76,0.44
1/31/2013,82,78,1.35
2/1/2013,89,77,0.15
2/2/2013,87,77,0.24
2/3/2013,85,78,0.29
2/4/2013,85,79,2.31
2/5/2013,89,77,0.75
2/6/2013,83,79, T
2/7/2013,86,78,0.06
2/8/2013,83,76,3.01
2/9/2013,86,75,0.14
2/10/2013,88,77,0.63
2/11/2013,88,76,0.66
2/12/2013,88,76,0.01
2/13/2013,88,81,0.08
2/14/2013,88,79,0.08
2/15/2013,86,78,0.07
2/16/2013,86,77,0.29
2/17/2013,87,81,0.01
2/18/2013,89,81,0.01
2/19/2013,90,76,0.15
2/20/2013,88,76,0.02
2/21/2013,90,79,0.14
2/22/2013,89,79,0
2/23/2013,89,77,0.04
2/24/2013,89,77,0.01
2/25/2013,90,79,0.01
2/26/2013,91,78,0.05
2/27/2013,88,77,1.04
2/28/2013,89,80,0.23
3/1/2013,89,78,0
3/2/2013,89,74,0.12
3/3/2013,89,76,0
3/4/2013,89,79,0.07
3/5/2013,86,78,1.79
3/6/2013,83,77,1
3/7/2013,86,77,0.64
3/8/2013,86,76,0.67
3/9/2013,89,81,0.1
3/10/2013,89,78,1.22
3/11/2013,89,74,2.38
3/12/2013,88,79,0
3/13/2013,89,78,0
3/14/2013,90,77,0.06
3/15/2013,89,78,0
3/16/2013,88,77,0.05
3/17/2013,89,77,0
3/18/2013,87,77,0.66
3/19/2013,88,76,0.05
3/20/2013,89,78,0.12
3/21/2013,88,78,0.05
3/22/2013,84,77,0.06
3/23/2013,85,76,0.16
3/24/2013,87,75,0.01
3/25/2013,88,77,0
3/26/2013,91,78,0.57
3/27/2013,88,77,0.18
3/28/2013,89,78,0.01
3/29/2013,89,78,0
3/30/2013,90,78,0
3/31/2013,87,76,0
4/1/2013,90,78,0
4/2/2013,89,76,0
4/3/2013,90,78,0.03
4/4/2013,91,79,0.02
4/5/2013,91,79,0.01
4/6/2013,90,78,0.08
4/7/2013,90,82, T
4/8/2013,90,77, T
4/9/2013,91,76,0.39
4/10/2013,88,78,0.1
4/11/2013,91,81,0.05
4/12/2013,89,79,0.25
4/13/2013,89,78,0.58
4/14/2013,84,76,1.06
4/15/2013,88,76,0.17
4/16/2013,84,78,1.36
4/17/2013,85,77,0.31
4/18/2013,86,79,0.21
4/19/2013,89,77,1.45
4/20/2013,84,77,0.09
4/21/2013,87,80,0.13
4/22/2013,88,81,0.01
4/23/2013,86,77,2.14
4/24/2013,88,76,0.01
4/25/2013,87,82,0
4/26/2013,86,79,0.18
4/27/2013,87,78,0.6
4/28/2013,86,78,1.61
4/29/2013,88,80,0.16
4/30/2013,87,73,2.52
5/1/2013,86,75,0.39
5/2/2013,88,79,0.88
5/3/2013,86,76,0.04
5/4/2013,85,75,0
5/5/2013,85,74,0
5/6/2013,83,80,0
5/7/2013,87,78,0.06
5/8/2013,87,78,0.01
5/9/2013,88,76,0
5/10/2013,88,78,0.61
5/11/2013,82,76,2.43
5/12/2013,88,78,0.2
5/13/2013,87,77,0.05
5/14/2013,88,77,0
5/15/2013,88,81,0
5/16/2013,88,80,0.05
5/17/2013,88,80,0.19
5/18/2013,87,80,0.11
5/19/2013,87,78,0.36
5/20/2013,88,82,0
5/21/2013,87,82,0
5/22/2013,87,82,0
5/23/2013,89,81,0
5/24/2013,88,81,0.23
5/25/2013,87,82,0.03
5/26/2013,89,81,0
5/27/2013,89,80,0.25
5/28/2013,88,79,0.23
5/29/2013,87,80,0.02
5/30/2013,83,79,0.2
5/31/2013,87,81,0.01
6/1/2013,88,75,0.14
6/2/2013,89,78,0.03
6/3/2013,88,81,0
6/4/2013,85,81,0.17
6/5/2013,81,73,7.02
6/6/2013,86,80,0
6/7/2013,87,80,0
6/8/2013,87,79,0
6/9/2013,85,76,0.6
6/10/2013,88,76,0.09
6/11/2013,85,78,0.03
6/12/2013,88,79,0.02
6/13/2013,87,76,0.75
6/14/2013,87,81,0.13
6/15/2013,83,77,0.1
6/16/2013,85,76,0.9
6/17/2013,86,80,0
6/18/2013,87,77,0
6/19/2013,88,77,0.02
6/20/2013,87,76,0
6/21/2013,87,78,0.04
6/22/2013,86,79, T
6/23/2013,82,77,0.08
6/24/2013,84,78,0.13
6/25/2013,81,76,0.65
6/26/2013,87,78,0.44
6/27/2013,86,78,0
6/28/2013,86,77,0.22
6/29/2013,86,75,0
6/30/2013,87,75,0.2
7/1/2013,85,78,0.29
7/2/2013,80,77,0.73
7/3/2013,81,77,0.01
7/4/2013,84,78,0.03
7/5/2013,81,74,0.74
7/6/2013,85,79,0.04
7/7/2013,85,78,0
7/8/2013,87,77, T
7/9/2013,85,76,0.15
7/10/2013,84,77,0.26
7/11/2013,86,76,0.27
7/12/2013,88,77,0.6
7/13/2013,83,77,0.55
7/14/2013,85,78,0.38
7/15/2013,87,76,0.06
7/16/2013,84,78,0.12
7/17/2013,80,75,0.59
7/18/2013,81,76,0.2
7/19/2013,82,77,0.6
7/20/2013,84,74,0.98
7/21/2013,86,73,0
7/22/2013,85,73,0
7/23/2013,86,73,0
7/24/2013,86,79,0.11
7/25/2013,86,80, T
7/26/2013,85,79,0
7/27/2013,85,77,1.3
7/28/2013,85,77,0.32
7/29/2013,86,78,0.1
7/30/2013,84,79, T
7/31/2013,84,78,0.05
8/1/2013,86,76,0.07
8/2/2013,87,74,0
8/3/2013,84,74,3.34
8/4/2013,85,75,0.31
8/5/2013,84,75,0.32
8/6/2013,83,77,0.11
8/7/2013,82,78, T
8/8/2013,83,78,0.01
8/9/2013,86,79,0.13
8/10/2013,81,73,3.79
8/11/2013,86,79,0
8/12/2013,85,75,0
8/13/2013,85,73,0
8/14/2013,84,78,0
8/15/2013,84,77,0.52
8/16/2013,80,75,3.4
8/17/2013,78,72,4.24
8/18/2013,83,78,0.3
8/19/2013,82,75,1.1
8/20/2013,87,73,0
8/21/2013,88,75,0.09
8/22/2013,88,79,0
8/23/2013,88,79,0
8/24/2013,88,77,0.03
8/25/2013,88,75,0.02
8/26/2013,87,76,0.08
8/27/2013,87,78,0.1
8/28/2013,88,77,0
8/29/2013,88,75,0
8/30/2013,89,77,0
8/31/2013,85,76,0.18
9/1/2013,81,75,1.87
9/2/2013,84,74,1.77
9/3/2013,88,73,0
9/4/2013,86,77,0
9/5/2013,88,75,0
9/6/2013,85,74,0
9/7/2013,82,77,0.27
9/8/2013,84,76,0.71
9/9/2013,85,78,0.02
9/10/2013,86,78,0.13
9/11/2013,87,81, T
9/12/2013,87,79,0.07
9/13/2013,85,76,0.28
9/14/2013,86,80, T
9/15/2013,86,80,0.01
9/16/2013,87,78, T
9/17/2013,82,78,0.32
9/18/2013,86,75,1.5
9/19/2013,86,80, T
9/20/2013,86,79, T
9/21/2013,84,78,0.45
9/22/2013,84,79,0.08
9/23/2013,86,80,0
9/24/2013,87,79, T
9/25/2013,87,76, T
9/26/2013,86,76,0
9/27/2013,88,79,0
9/28/2013,84,75,0.56
9/29/2013,87,75,0
9/30/2013,88,77,0.1
10/1/2013,89,75,0.08
10/2/2013,84,76,0.53
10/3/2013,89,76,0
10/4/2013,88,77,0
10/5/2013,89,80,0
10/6/2013,84,78,0.11
10/7/2013,89,78,0.01
10/8/2013,89,76,0.01
10/9/2013,89,77,0.01
10/10/2013,87,76,0.99
10/11/2013,83,77,0.22
10/12/2013,86,80,0.14
10/13/2013,86,79,0.07
10/14/2013,87,81, T
10/15/2013,86,77,0.59
10/16/2013,88,80,0.01
10/17/2013,87,80,0.01
10/18/2013,85,75,0.09
10/19/2013,80,76,0.93
10/20/2013,83,77,0.29
10/21/2013,86,79, T
10/22/2013,85,79,0.03
10/23/2013,85,79,0
10/24/2013,83,80, T
10/25/2013,85,77,0.04
10/26/2013,85,79,0
10/27/2013,87,78,0.03
10/28/2013,86,79,0
10/29/2013,84,77,0.01
10/30/2013,86,76,0.87
10/31/2013,81,76,0.64
11/1/2013,87,79,0.17
11/2/2013,88,77,0.03
11/3/2013,86,79,0.02
11/4/2013,87,80,0
11/5/2013,86,80,0
11/6/2013,86,79,0
11/7/2013,88,80,0
11/8/2013,88,79,0.03
11/9/2013,87,77,0.38
11/10/2013,84,77,0.06
11/11/2013,88,78,0.19
11/12/2013,88,77, T
11/13/2013,81,73,2.17
11/14/2013,85,74,0
11/15/2013,85,74,0.02
11/16/2013,87,75,0
11/17/2013,86,80,0.02
11/18/2013,84,79,0.18
11/19/2013,86,80,0.05
11/20/2013,88,77,0.2
11/21/2013,87,76,0.21
11/22/2013,84,76,0.03
11/23/2013,89,78, T
11/24/2013,89,77,0.35
11/25/2013,88,78,0.05
11/26/2013,89,81,0
11/27/2013,90,80,0
11/28/2013,84,77,0.39
11/29/2013,87,80,0.01
11/30/2013,82,78,1.35
12/1/2013,87,80,0.09
12/2/2013,86,76,0.38
12/3/2013,84,80,0.19
12/4/2013,86,78,0.03
12/5/2013,85,76,0.22
12/6/2013,85,76,0.65
12/7/2013,86,77,0.29
12/8/2013,88,79,0.09
12/9/2013,84,77,2.21
12/10/2013,86,77,1.14
12/11/2013,87,75,1.73
12/12/2013,88,79,0.04
12/13/2013,89,77,1.2
12/14/2013,89,77,0.17
12/15/2013,89,77,0
12/16/2013,90,81, T
12/17/2013,90,81,0.03
12/18/2013,89,80,0.02
12/19/2013,89,80,0.12
12/20/2013,88,78,0.15
12/21/2013,88,80,0.17
12/22/2013,90,80,0
12/23/2013,87,79,0.02
12/24/2013,82,76,0.46
12/25/2013,87,77,0
12/26/2013,90,78,0
12/27/2013,89,78,0.24
12/28/2013,88,82,0
12/29/2013,88,79,0
12/30/2013,90,77,2.01
12/31/2013,86,77,1.06
1/1/2014,81,77,2.68
1/2/2014,83,78,1.11
1/3/2014,87,77,1.45
1/4/2014,86,77,0.95
1/5/2014,86,78,0.19
1/6/2014,82,78,0.93
1/7/2014,84,75,1.72
1/8/2014,83,78,2.25
1/9/2014,84,78,1.31
1/10/2014,85,78,0.53
1/11/2014,86,80,0.05
1/12/2014,88,77,0.06
1/13/2014,85,75, T
1/14/2014,88,79,0.28
1/15/2014,89,80, T
1/16/2014,88,76,1.79
1/17/2014,88,75,0.02
1/18/2014,88,77,0
1/19/2014,86,77,0.11
1/20/2014,86,75,0.32
1/21/2014,87,75,0.04
1/22/2014,88,76,0.21
1/23/2014,89,77,0.15
1/24/2014,88,78,0.56
1/25/2014,87,76,0.94
1/26/2014,83,76,1.5
1/27/2014,87,76,0.08
1/28/2014,90,76,0.02
1/29/2014,87,78,0.02
1/30/2014,87,79,0.19
1/31/2014,88,78,0.08
2/1/2014,88,77,0.3
2/2/2014,89,81,0.08
2/3/2014,88,80,0
2/4/2014,87,79,0
2/5/2014,89,75,0
2/6/2014,87,76,0.2
2/7/2014,90,76,0
2/8/2014,91,77,1.13
2/9/2014,88,77,2.22
2/10/2014,89,80,0.07
2/11/2014,89,78,0.3
2/12/2014,88,79,0.04
2/13/2014,87,81,0
2/14/2014,88,79,0.14
2/15/2014,89,79,0.01
2/16/2014,91,79,0.03
2/17/2014,87,81,0.25
2/18/2014,91,77,0.66
2/19/2014,89,76,0.18
2/20/2014,87,78,1.76
2/21/2014,87,76,0.27
2/22/2014,89,76, T
2/23/2014,88,78,0.06
2/24/2014,88,79,0.5
2/25/2014,88,79,0.65
2/26/2014,86,79,1.17
2/27/2014,86,78,1.58
2/28/2014,87,79,0.05
3/1/2014,87,81,0.12
3/2/2014,88,80,0.52
3/3/2014,89,80,0.39
3/4/2014,86,81,0.02
3/5/2014,89,78,0
3/6/2014,88,76,2.43
3/7/2014,87,76,0.01
3/8/2014,87,78,0.31
3/9/2014,87,78,0.29
3/10/2014,88,79, T
3/11/2014,89,79,0.03
3/12/2014,90,78,0
3/13/2014,87,79,0.39
3/14/2014,87,78,0.42
3/15/2014,86,80,0.1
3/16/2014,88,82,0.01
3/17/2014,87,79,0.12
3/18/2014,86,79,0.07
3/19/2014,86,76,0.07
3/20/2014,87,76,0.49
3/21/2014,88,76,0
3/22/2014,87,77, T
3/23/2014,89,76,0.22
3/24/2014,89,78,0.59
3/25/2014,89,77,0
3/26/2014,88,76,0
3/27/2014,89,76,0.21
3/28/2014,89,77,0.14
3/29/2014,89,77,0
3/30/2014,89,75,0
3/31/2014,86,76,0
4/1/2014,82,76,1.35
4/2/2014,89,77,0
4/3/2014,90,79,0.43
4/4/2014,89,76,0.83
4/5/2014,89,78,0
4/6/2014,85,77,2.25
4/7/2014,88,76,0.18
4/8/2014,84,78,0.71
4/9/2014,88,76,0.55
4/10/2014,88,77,0.28
4/11/2014,89,78,0.22
4/12/2014,87,79,0.01
4/13/2014,88,79,0
4/14/2014,87,76,0.06
4/15/2014,89,77,0.03
4/16/2014,87,75,0.02
4/17/2014,86,76,0.03
4/18/2014,87,75,0.11
4/19/2014,85,76,1.71
4/20/2014,87,77,0.09
4/21/2014,87,81,0
4/22/2014,85,74,0
4/23/2014,86,76,0
4/24/2014,88,78,0.01
4/25/2014,84,77,0.6
4/26/2014,84,75,0.73
4/27/2014,84,78,1.15
4/28/2014,82,75,1.61
4/29/2014,86,75,0.39
4/30/2014,84,78,0.94
5/1/2014,88,76,0
5/2/2014,86,75,0
5/3/2014,85,78,0.01
5/4/2014,84,76,0
5/5/2014,85,74,0
5/6/2014,83,74,0.19
5/7/2014,85,73,0
5/8/2014,86,78,0.04
5/9/2014,86,74,0.05
5/10/2014,88,81,0.1
5/11/2014,87,80,0.15
5/12/2014,85,80,0.01
5/13/2014,85,79,0.23
5/14/2014,88,80,0.01
5/15/2014,88,81,0
5/16/2014,87,80,0.06
5/17/2014,88,82, T
5/18/2014,88,78,0.16
5/19/2014,85,77,1.06
5/20/2014,87,76,0.2
5/21/2014,82,77,0.52
5/22/2014,85,76,3.45
5/23/2014,85,79,0.14
5/24/2014,83,79,0.17
5/25/2014,85,79,0.22
5/26/2014,84,78,0.13
5/27/2014,88,77,0
5/28/2014,84,76,0.3
5/29/2014,83,79,0.55
5/30/2014,87,81,0.01
5/31/2014,85,79,0.08
6/1/2014,86,81,0.17
6/2/2014,86,81, T
6/3/2014,86,75,0.37
6/4/2014,85,74,0.18
6/5/2014,85,76,3.79
6/6/2014,84,78,0.03
6/7/2014,85,79,0.07
6/8/2014,84,78,0.05
6/9/2014,85,78,0
6/10/2014,83,79,0
6/11/2014,85,78,0.1
6/12/2014,85,78,0.05
6/13/2014,86,76,0.44
6/14/2014,86,75,0.04
6/15/2014,84,77,0.12
6/16/2014,83,76,0.81
6/17/2014,85,77,0.67
6/18/2014,86,79, T
6/19/2014,87,76, T
6/20/2014,85,76,0.03
6/21/2014,86,77,0.06
6/22/2014,84,80,0.01
6/23/2014,82,75,0.62
6/24/2014,83,76,0
6/25/2014,82,78,0.03
6/26/2014,80,75,0.28
6/27/2014,82,75,0.3
6/28/2014,84,79,0
6/29/2014,84,78,0
6/30/2014,84,79,0
7/1/2014,84,77,0
7/2/2014,81,76,0.07
7/3/2014,80,76,0.71
7/4/2014,83,76,0.22
7/5/2014,83,77,0.77
7/6/2014,87,77,0.4
7/7/2014,85,79,0.07
7/8/2014,87,78,0.05
7/9/2014,85,78,0.3
7/10/2014,81,78,0.07
7/11/2014,81,69,0
7/12/2014,83,66,0
7/13/2014,82,72,0.12
7/14/2014,84,74,0.11
7/15/2014,86,76,0
7/16/2014,83,75,0.01
7/17/2014,87,75, T
7/18/2014,87,73,0
7/19/2014,87,80,0
7/20/2014,87,77,0
7/21/2014,87,74,0
7/22/2014,86,79,0
7/23/2014,86,78,0.31
7/24/2014,82,76,0.03
7/25/2014,78,75,0.06
7/26/2014,78,75,0.02
7/27/2014,80,73,0.07
7/28/2014,85,76,0.08
7/29/2014,79,74,5.91
7/30/2014,79,72,3
7/31/2014,82,72,6.1
8/1/2014,83,77,0.17
8/2/2014,80,75,0.64
8/3/2014,82,75,0.09
8/4/2014,84,76,0.05
8/5/2014,85,77,0.12
8/6/2014,84,76,0.03
8/7/2014,85,76,0.08
8/8/2014,87,79,0
8/9/2014,87,77,0.01
8/10/2014,87,76,0
8/11/2014,87,77,0.11
8/12/2014,86,74,0.49
8/13/2014,87,77, T
8/14/2014,87,75, T
8/15/2014,88,77,0
8/16/2014,85,76,0.04
8/17/2014,85,75,0.11
8/18/2014,84,74,0.06
8/19/2014,81,74,0.5
8/20/2014,85,77,0.13
8/21/2014,86,78,0
8/22/2014,84,78, T
8/23/2014,82,76,0.08
8/24/2014,80,76,0
8/25/2014,79,76, T
8/26/2014,81,74,0.01
8/27/2014,80,75,0.07
8/28/2014,82,76, T
8/29/2014,83,77,0.03
8/30/2014,84,75,0.02
8/31/2014,83,77,0.38
9/1/2014,85,78, T
9/2/2014,85,78, T
9/3/2014,85,79, T
9/4/2014,87,79,0.01
9/5/2014,85,79,0
9/6/2014,88,79, T
9/7/2014,87,79,0
9/8/2014,84,79, T
9/9/2014,85,77,0.42
9/10/2014,85,78,0.03
9/11/2014,85,78,0.01
9/12/2014,85,79,0.02
9/13/2014,85,78,0.05
9/14/2014,83,77,0.14
9/15/2014,87,77,0.09
9/16/2014,89,79,0
9/17/2014,85,77,0.29
9/18/2014,85,76,0.16
9/19/2014,87,78,0
9/20/2014,89,78,0.01
9/21/2014,88,80,0
9/22/2014,86,76,0.07
9/23/2014,85,76,0.12
9/24/2014,85,76,0.2
9/25/2014,85,78,0.53
9/26/2014,88,78,0.14
9/27/2014,88,78, T
9/28/2014,87,78,0.15
9/29/2014,88,79,0.16
9/30/2014,88,80,0
10/1/2014,87,80,0.01
10/2/2014,90,80, T
10/3/2014,89,80,0.01
10/4/2014,90,81,0
10/5/2014,90,81, T
10/6/2014,90,81, T
10/7/2014,91,80, T
10/8/2014,90,80,0
10/9/2014,90,81,0
10/10/2014,91,80,0
10/11/2014,90,77,0.01
10/12/2014,91,78,0
10/13/2014,92,79,0.05
10/14/2014,82,75,0.75
10/15/2014,85,77,0.9
10/16/2014,83,78,0
10/17/2014,86,78,0.03
10/18/2014,86,78,0.02
10/19/2014,86,79,0
10/20/2014,86,79,0
10/21/2014,87,79,0
10/22/2014,87,80,0
10/23/2014,88,80,0
10/24/2014,90,78,0.07
10/25/2014,86,77,0.25
10/26/2014,89,79,0
10/27/2014,85,79,0.32
10/28/2014,89,78,0.1
10/29/2014,90,79,0.08
10/30/2014,82,76,0.08
10/31/2014,87,75,0
11/1/2014,84,77,0.83
11/2/2014,80,76,1.69
11/3/2014,81,72,3.23
11/4/2014,88,78,0.29
11/5/2014,86,79,0.05
11/6/2014,86,77, T
11/7/2014,85,77, T
11/8/2014,89,77,0.01
11/9/2014,89,76,0
11/10/2014,88,78,0.37
11/11/2014,85,78,0.36
11/12/2014,80,77,0.35
11/13/2014,85,76,0
11/14/2014,84,79,0
11/15/2014,84,79,0.06
11/16/2014,85,76,0.64
11/17/2014,88,81,0.01
11/18/2014,89,80,0.43
11/19/2014,88,80,0.14
11/20/2014,88,80,0
11/21/2014,86,80,0
11/22/2014,86,76,1.47
11/23/2014,85,74,1.5
11/24/2014,86,76,0.99
11/25/2014,83,76,0.25
11/26/2014,84,78,0.59
11/27/2014,90,78, T
11/28/2014,84,78,0.47
11/29/2014,86,77, T
11/30/2014,86,78,0.03
12/1/2014,87,78, T
12/2/2014,85,80,0
12/3/2014,85,81, T
12/4/2014,85,78,1.27
12/5/2014,87,77,1.05
12/6/2014,86,78,0.28
12/7/2014,86,81,0.04
12/8/2014,85,78,0.06
12/9/2014,82,78,1.14
12/10/2014,87,80,0.88
12/11/2014,86,78,0.11
12/12/2014,87,76,0.16
12/13/2014,86,81,0.01
12/14/2014,85,79,0.02
12/15/2014,87,77,0.11
12/16/2014,87,78,0.39
12/17/2014,87,77,0.02
12/18/2014,84,78,1
12/19/2014,83,75,2.34
12/20/2014,86,78,0.24
12/21/2014,83,77,3.14
12/22/2014,84,78,1.01
12/23/2014,88,81,0
12/24/2014,88,81,0
12/25/2014,88,79,0.02
12/26/2014,82,77,1.98
12/27/2014,85,80,0.17
12/28/2014,88,81,0.3
12/29/2014,90,78,0.03
12/30/2014,88,81,0.46
12/31/2014,85,79,0.45
1/1/2015,83,76,1.57
1/2/2015,86,76,0.28
1/3/2015,87,80,0.06
1/4/2015,86,77,2.1
1/5/2015,87,78,1.21
1/6/2015,85,77,0.69
1/7/2015,89,77,0.79
1/8/2015,86,77,0.21
1/9/2015,87,78,0.17
1/10/2015,89,78,0.23
1/11/2015,87,79,1.27
1/12/2015,89,76,0.14
1/13/2015,90,79,0.96
1/14/2015,90,78,0.01
1/15/2015,91,78,0
1/16/2015,91,80,0.47
1/17/2015,91,79,0
1/18/2015,89,79,0.1
1/19/2015,91,81,0
1/20/2015,81,75,4.05
1/21/2015,87,76,2.89
1/22/2015,86,77,0.01
1/23/2015,87,76,0
1/24/2015,87,77,0.78
1/25/2015,88,75,0
1/26/2015,88,79,0.86
1/27/2015,85,78,1.22
1/28/2015,89,79,1.04
1/29/2015,84,77,3.92
1/30/2015,85,78,0.7
1/31/2015,85,78,1.14
2/1/2015,85,79,0.15
2/2/2015,90,77,1.32
2/3/2015,89,76,0
2/4/2015,89,83,0
2/5/2015,89,78,0.86
2/6/2015,86,78,0.38
2/7/2015,87,79,0.37
2/8/2015,85,77,2.92
2/9/2015,89,76,0.12
2/10/2015,80,77,0.66
2/11/2015,89,78,0.01
2/12/2015,89,79,0.06
2/13/2015,90,77,0.32
2/14/2015,89,80,0.26
2/15/2015,90,82,0.22
2/16/2015,90,78,0.92
2/17/2015,88,77,0.54
2/18/2015,89,78,0.05
2/19/2015,91,80, T
2/20/2015,88,80,0.42
2/21/2015,88,78,0.87
2/22/2015,90,76,1.59
2/23/2015,89,78,0
2/24/2015,89,79,0
2/25/2015,88,78,0.02
2/26/2015,88,78,0.06
2/27/2015,90,80,0.04
2/28/2015,88,79,0.06
3/1/2015,89,80,0.13
3/2/2015,89,81, T
3/3/2015,89,79, T
3/4/2015,91,79,0.01
3/5/2015,90,78,0.55
3/6/2015,89,77,0.2
3/7/2015,87,77,0.04
3/8/2015,89,78,0
3/9/2015,86,78,0.06
3/10/2015,90,77,0.7
3/11/2015,88,79,0.04
3/12/2015,91,82,0
3/13/2015,90,80,0.42
3/14/2015,89,78,0.47
3/15/2015,87,79, T
3/16/2015,89,78,0.65
3/17/2015,88,77,0.02
3/18/2015,88,78,0.01
3/19/2015,90,79,0
3/20/2015,88,80,0.25
3/21/2015,89,81,0.05
3/22/2015,88,80,0.93
3/23/2015,90,79,0.06
3/24/2015,86,77,0.19
3/25/2015,87,80,0.21
3/26/2015,83,75,1.25
3/27/2015,88,73,0.04
3/28/2015,86,77, T
3/29/2015,86,77,0.37
3/30/2015,85,77,0.18
3/31/2015,88,77,0.03
4/1/2015,86,78,0.56
4/2/2015,87,75,0.58
4/3/2015,88,76,1.21
4/4/2015,86,78,0.45
4/5/2015,87,76,0.65
4/6/2015,87,79,0.01
4/7/2015,86,79,0.02
4/8/2015,86,78, T
4/9/2015,86,81,0.01
4/10/2015,89,80,0.35
4/11/2015,89,80,0.05
4/12/2015,90,82,0
4/13/2015,89,77,0.23
4/14/2015,88,76,0.57
4/15/2015,88,77,0.18
4/16/2015,89,80,0.05
4/17/2015,87,78,0.35
4/18/2015,83,76,2.47
4/19/2015,89,78,0
4/20/2015,89,78,0.01
4/21/2015,88,77,0
4/22/2015,86,76,5.32
4/23/2015,85,76,0.26
4/24/2015,87,77,0.66
4/25/2015,88,78,0.28
4/26/2015,86,75,0
4/27/2015,86,76, T
4/28/2015,89,79,0
4/29/2015,89,77,0
4/30/2015,88,78,0.08
5/1/2015,88,79,0.31
5/2/2015,87,80,0.06
5/3/2015,87,78,0.98
5/4/2015,87,78,0.42
5/5/2015,82,79,0.27
5/6/2015,82,76,3.49
5/7/2015,83,77,1.58
5/8/2015,83,79,0.03
5/9/2015,86,79,0
5/10/2015,87,77,1.71
5/11/2015,87,77,0.43
5/12/2015,83,78,0.08
5/13/2015,84,80,0.08
5/14/2015,87,80,0.13
5/15/2015,85,79,0.31
5/16/2015,88,77,0.3
5/17/2015,82,75,1.54
5/18/2015,82,77,0
5/19/2015,83,77,0.09
5/20/2015,82,78,0.01
5/21/2015,82,78,0.72
5/22/2015,80,75,1.5
5/23/2015,84,76,0.54
5/24/2015,87,75,0.73
5/25/2015,86,77,0.31
5/26/2015,88,80,0
5/27/2015,87,79,0.26
5/28/2015,88,77,0.22
5/29/2015,83,78,0.16
5/30/2015,82,75,0.33
5/31/2015,86,75,0
6/1/2015,85,80, T
6/2/2015,86,80, T
6/3/2015,87,80,0
6/4/2015,86,81,0
6/5/2015,87,79,0.11
6/6/2015,86,81,0
6/7/2015,87,80,0.08
6/8/2015,87,79,0
6/9/2015,84,79, T
6/10/2015,82,80, T
6/11/2015,83,79,0.11
6/12/2015,81,78,1.35
6/13/2015,82,75,1.57
6/14/2015,85,75,0.01
6/15/2015,84,76,0.52
6/16/2015,85,75,0
6/17/2015,82,76,1.34
6/18/2015,79,77,1.34
6/19/2015,81,77,0
6/20/2015,83,77,0
6/21/2015,85,79,0
6/22/2015,84,79,0
6/23/2015,85,77,0.15
6/24/2015,83,74,1.41
6/25/2015,81,77,0.01
6/26/2015,80,77, T
6/27/2015,79,77,0.02
6/28/2015,80,77,0.02
6/29/2015,80,76,1.02
6/30/2015,81,75,0.01
7/1/2015,85,76,0.49
7/2/2015,80,76,0.32
7/3/2015,81,77,0.03
7/4/2015,85,78, T
7/5/2015,84,75,0.15
7/6/2015,84,75,0
7/7/2015,83,78,0.15
7/8/2015,85,77,0.04
7/9/2015,86,75,0.86
7/10/2015,83,75,0.65
7/11/2015,86,78,0.05
7/12/2015,87,78,0.08
7/13/2015,81,77,0.4
7/14/2015,80,77, T
7/15/2015,80,76,0
7/16/2015,82,77,0
7/17/2015,84,78,0
7/18/2015,83,77,0
7/19/2015,85,77,0
7/20/2015,83,78,0
7/21/2015,82,79,0
7/22/2015,80,76,0.08
7/23/2015,80,76,0.01
7/24/2015,82,76,0.06
7/25/2015,81,76,0.16
7/26/2015,80,76,0.31
7/27/2015,81,77,0.06
7/28/2015,82,77,0.02
7/29/2015,83,78,0
7/30/2015,81,76,0.01
7/31/2015,80,77,0.06
8/1/2015,85,75,0.61
8/2/2015,78,73,0.29
8/3/2015,81,77, T
8/4/2015,82,75,0.01
8/5/2015,82,77, T
8/6/2015,83,77,0
8/7/2015,85,78,0.16
8/8/2015,85,77,0.36
8/9/2015,83,77,0.87
8/10/2015,86,75,2.38
8/11/2015,80,75,1.79
8/12/2015,79,76,0.03
8/13/2015,78,74,0.09
8/14/2015,81,72,0
8/15/2015,82,72,0
8/16/2015,85,77,0
8/17/2015,83,77,0
8/18/2015,84,75,0.02
8/19/2015,81,75,0.04
8/20/2015,83,75,0
8/21/2015,84,74, T
8/22/2015,83,77, T
8/23/2015,83,76,0.02
8/24/2015,88,76,0
8/25/2015,83,78,0.01
8/26/2015,82,77, T
8/27/2015,83,76, T
8/28/2015,82,74,0.07
8/29/2015,81,75, T
8/30/2015,81,74,0
8/31/2015,81,76,0
9/1/2015,83,76,0
9/2/2015,86,76,0
9/3/2015,85,77,0
9/4/2015,84,78,0
9/5/2015,84,76,0
9/6/2015,86,71,0
9/7/2015,84,71,0
9/8/2015,83,77, T
9/9/2015,79,75, T
9/10/2015,84,74,0.11
9/11/2015,80,74,0.38
9/12/2015,82,74,0
9/13/2015,80,72,0.04
9/14/2015,80,74,0.04
9/15/2015,82,76, T
9/16/2015,81,75,0.12
9/17/2015,83,78,0
9/18/2015,85,78,0.01
9/19/2015,86,79,0.02
9/20/2015,87,76,0.24
9/21/2015,88,78,0.14
9/22/2015,88,75,0
9/23/2015,85,74,0
9/24/2015,88,79,0
9/25/2015,88,77,0
9/26/2015,89,79,0
9/27/2015,90,78,0.02
9/28/2015,91,80,0
9/29/2015,86,79,0.06
9/30/2015,85,77,0.02
10/1/2015,83,74,0.14
10/2/2015,84,77, T
10/3/2015,80,76,0.9
10/4/2015,82,77,0.13
10/5/2015,81,77,0.94
10/6/2015,82,75,0.12
10/7/2015,81,75,0.01
10/8/2015,79,75,0.03
10/9/2015,81,76,0.05
10/10/2015,83,78,1.46
10/11/2015,87,76,2.04
10/12/2015,88,77,0.18
10/13/2015,82,76,0.93
10/14/2015,81,78,0.76
10/15/2015,82,78,0.07
10/16/2015,82,77,0.12
10/17/2015,84,78,0.02
10/18/2015,85,78,0.04
10/19/2015,84,78,0
10/20/2015,84,78, T
10/21/2015,85,76,0.06
10/22/2015,85,78,0.04
10/23/2015,84,78,0.01
10/24/2015,85,78,0
10/25/2015,85,78,0.05
10/26/2015,85,78,0.01
10/27/2015,85,78,0
10/28/2015,85,78,0.01
10/29/2015,85,72,0.03
10/30/2015,87,79,0
10/31/2015,88,80,0.15
11/1/2015,88,80,0
11/2/2015,87,78,0.08
11/3/2015,87,80,0
11/4/2015,86,80, T
11/5/2015,89,80,0
11/6/2015,87,80,0
11/7/2015,87,80,0.15
11/8/2015,88,80,0
11/9/2015,87,80,0
11/10/2015,88,80,0
11/11/2015,88,81,0
11/12/2015,89,79,0.23
11/13/2015,86,78,0.12
11/14/2015,86,77,0.7
11/15/2015,87,75,2.37
11/16/2015,88,78,0.17
11/17/2015,89,78,0.09
11/18/2015,90,81,0.1
11/19/2015,90,80,0.37
11/20/2015,86,77,0.85
11/21/2015,87,76,1.83
11/22/2015,88,76,0.64
11/23/2015,88,77,0.52
11/24/2015,87,79,0.89
11/25/2015,84,78,1.52
11/26/2015,83,76,2.69
11/27/2015,84,77,4.08
11/28/2015,85,79,3.74
11/29/2015,86,79,0.04
11/30/2015,84,78,0.16
12/1/2015,83,77,0.24
12/2/2015,84,76,0.07
12/3/2015,84,73,0
12/4/2015,86,74,0.14
12/5/2015,87,79,0
12/6/2015,88,81,0
12/7/2015,86,80,0
12/8/2015,86,79,0
12/9/2015,85,78,0
12/10/2015,86,79, T
12/11/2015,88,80,0
12/12/2015,88,80,0
12/13/2015,88,80,0.17
12/14/2015,87,78,0.67
12/15/2015,87,77,0.54
12/16/2015,87,77,1.23
12/17/2015,88,79,0.42
12/18/2015,83,77,2.17
12/19/2015,88,79,0.09
12/20/2015,88,81,0
12/21/2015,87,77,0.05
12/22/2015,88,80,0.11
12/23/2015,88,80,0.2
12/24/2015,90,79,0.59
12/25/2015,89,79,0.17
12/26/2015,85,76,4.35
12/27/2015,82,76,3.49
12/28/2015,81,78,5.69
12/29/2015,87,81,0.11
12/30/2015,82,78,2.74
12/31/2015,87,79,0.29
1/1/2016,83,79,1.07
1/2/2016,88,79,0.02
1/3/2016,89,78,0.01
1/4/2016,90,80,0
1/5/2016,88,78,0
1/6/2016,87,78,0.03
1/7/2016,87,76,0.67
1/8/2016,85,77,0.51
1/9/2016,90,82,0.32
1/10/2016,87,81,0
1/11/2016,89,82,0.08
1/12/2016,89,81,0.34
1/13/2016,87,81,0.09
1/14/2016,87,82,0.14
1/15/2016,87,82,0.09
1/16/2016,85,82,0.03
1/17/2016,87,80,0.13
1/18/2016,87,80,0.48
1/19/2016,89,80,0.12
1/20/2016,89,81,0
1/21/2016,88,81,0.01
1/22/2016,89,81,0
1/23/2016,90,80,0.01
1/24/2016,89,78,0
1/25/2016,90,78,0
1/26/2016,89,81,0.18
1/27/2016,87,81,0.01
1/28/2016,89,81,0
1/29/2016,88,78,0.1
1/30/2016,90,78,0
1/31/2016,91,78,0
2/1/2016,89,81,0
2/2/2016,93,82,0.02
2/3/2016,93,83, T
2/4/2016,91,82,0.12
2/5/2016,92,83,0
2/6/2016,92,83,0
2/7/2016,94,83,0
2/8/2016,94,79,0
2/9/2016,94,80,0
2/10/2016,94,83,0.08
2/11/2016,95,83,0
2/12/2016,93,83,0
2/13/2016,92,81,0
2/14/2016,92,79,0
2/15/2016,88,81,0.67
2/16/2016,89,81,0.4
2/17/2016,89,82,0.34
2/18/2016,88,82,0.06
2/19/2016,86,81,0.39
2/20/2016,84,80,0.98
2/21/2016,89,81,0.05
2/22/2016,89,77,1.76
2/23/2016,84,77,0.87
2/24/2016,87,77,0.31
2/25/2016,86,80,0.02
2/26/2016,85,79,0.39
2/27/2016,87,81,0
2/28/2016,87,80,0.01
2/29/2016,88,80,0.02
3/1/2016,87,80,0.02
3/2/2016,87,80,0.06
3/3/2016,86,78,0.39
3/4/2016,87,78,0
3/5/2016,88,81,0.02
3/6/2016,89,79, T
3/7/2016,89,78,1.1
3/8/2016,88,80,0.32
3/9/2016,89,79,0.28
3/10/2016,83,78,2.2
3/11/2016,86,80,0.24
3/12/2016,87,79,0.23
3/13/2016,89,78,0.1
3/14/2016,85,79,1.23
3/15/2016,87,77,0.05
3/16/2016,90,79,0.05
3/17/2016,92,78,0.06
3/18/2016,89,79,0
3/19/2016,90,78,0.12
3/20/2016,91,81,0.16
3/21/2016,91,79,0.26
3/22/2016,89,79,0
3/23/2016,89,80,0.01
3/24/2016,90,81,0
3/25/2016,91,78,0.55
3/26/2016,87,78,0.28
3/27/2016,87,78,1.58
3/28/2016,89,80,0.05
3/29/2016,90,79,1.16
3/30/2016,86,79,0.24
3/31/2016,88,79, T
4/1/2016,85,78,2.15
4/2/2016,89,77,1.78
4/3/2016,90,80,0.03
4/4/2016,89,79,0.15
4/5/2016,90,83,0.03
4/6/2016,88,80,0.08
4/7/2016,90,80,0.46
4/8/2016,87,82,0.03
4/9/2016,83,78,2.55
4/10/2016,82,77,2.97
4/11/2016,87,76,1.03
4/12/2016,87,78,0.58
4/13/2016,85,78,1.72
4/14/2016,85,77,1.45
4/15/2016,85,79,1.93
4/16/2016,87,79,0.35
4/17/2016,88,78,0.37
4/18/2016,86,78,0.62
4/19/2016,84,78,0.77
4/20/2016,85,80,0.07
4/21/2016,86,82,0
4/22/2016,83,77,1.98
4/23/2016,84,79,1.1
4/24/2016,86,82,0.03
4/25/2016,85,78,0.02
4/26/2016,81,76,1.25
4/27/2016,85,76, T
4/28/2016,84,78,0.45
4/29/2016,86,76,4.59
4/30/2016,81,76,2.33
5/1/2016,83,78,2.37
5/2/2016,86,77,0.34
5/3/2016,89,76, T
5/4/2016,85,78,0.91
5/5/2016,86,77,0.01
5/6/2016,88,77,0
5/7/2016,85,80,0.2
5/8/2016,85,81,0.01
5/9/2016,86,80,0.01
5/10/2016,84,79,0.54
5/11/2016,81,78,2.04
5/12/2016,83,79,0.01
